900
4001.38730172967
648.873616496703
1
128
8
98.9325839775805
99.0017960371793
99.007348329608
99.0006481504706
99.0013552293808
98.9307144658561
98.9680800414295
98.9535267233175
98.8732034483196
98.9186002927885
98.9732647534842
98.9652846884935
98.9046938466166
98.849087767477
98.9800545239294
99.0627535597531
98.9816014894089
98.9496917963689
98.9640734835317
99.0049201363352
99.062997397747
98.9954205725053
99.001380397257
98.9978542275441
98.9593485371182
98.9497853371706
99.0467113572694
99.0451877977672
98.982527426334
99.0593501175247
99.0936585983776
99.0403664697185
98.9953740841241
99.0499793602138
99.0069581051013
98.9073932339289
99.001969156559
99.1395369664395
98.994046636884
98.8886497063153
99.1331885602481
99.1643806055727
99.0579207015195
98.9522862669925
99.0060345862601
99.0711993783158
99.054462847878
98.9629796377831
98.9754863666324
99.1560016498967
99.1054773860176
98.9967619174708
98.9870487113755
99.0140221857
98.9361667148744
98.977081286081
99.0694102575943
99.0921010591102
99.1005662864438
99.1045534201736
99.0607587500492
98.9987133321148
99.0681959804846
99.1265013669235
99.1297729801868
99.0565994528181
98.9014386017036
98.9495526185791
99.0524748741719
99.2119012384373
99.1745933721863
99.1762413871825
99.2776029393434
99.2105166115441
99.0139311987007
98.992323506247
98.9659670143558
98.9343766929688
98.7596347676299
98.4883267782878
98.3151851973341
97.9838294257336
97.8574558728612
98.0442390388613
98.159081921855
98.2815247289216
98.2763394677123
98.1190792474768
98.0915585536637
98.2661753519283
98.3574534350176
98.2912279765833
98.2324978087217
98.0660276998581
97.9392033833365
98.0662535068302
98.0976765086474
98.077839488109
98.1954271131903
98.0940632269542
97.8590667674952
97.6717482885428
97.7435246582466
97.9605170418703
97.9874277343967
98.1412558866838
98.42722332983
98.4303461433709
98.3684889115308
98.4350416315113
98.4633228212771
98.245255877825
98.3142740941769
98.6921621716526
98.7104465521678
98.6022418793728
98.5146087506048
98.6139442322364
98.7073071238981
98.5668021641743
98.4628716591897
98.5083807049834
98.5694260191865
98.6331576829419
98.5954703276649
98.6922065856772
98.7440644621707
98.6897165927554
98.5781224246888
98.4490244357717
98.5181362832155
98.7886397275864
98.7276683496956
98.6434541852393
98.6319458934186
98.6538998330216
98.7664890201185
98.8207288799232
98.9192960438986
98.8274691586462
98.7048153551169
98.7909334561216
98.7644029691386
98.7049326293796
98.6130238536583
98.6644272562181
98.6786520718801
98.7000103614831
98.6163700512611
98.5360724175105
98.6414319651708
98.7338194000601
98.6174860526538
98.5074330932636
98.5827950881124
98.6316175872507
98.5262476899889
98.501870385895
98.624311992058
98.6096301960452
98.4174340612935
98.3070366005227
98.5514653342003
98.6363390457989
98.4121983908729
98.3618622686267
98.5881834969992
98.6779783115282
98.4890204515541
98.427277829108
98.4812811320182
98.4899453497961
98.538861378896
98.6227561526768
98.589046053269
98.45908355532
98.2831565081452
98.3305436112291
98.4354982583434
98.3917486775596
98.3892704581589
98.5821621578078
98.5737534393062
98.2463812422542
98.3296769066129
98.4289606983979
98.460369961709
98.4626471585083
98.3036577499267
98.3371011738439
98.4625891788053
98.48884516369
98.5174617796408
98.4851681234079
98.414591553658
98.26584444078
98.3218961492372
98.3833950440179
98.2401900828013
98.3320567454126
98.5445581539538
98.5536570474916
98.395933563747
98.3593842846677
98.3721987014748
98.5038049578891
98.5821408530803
98.6246209777911
98.5193274560634
98.3711281936182
98.3668617305728
98.4476812020627
98.4398842803331
98.4747973462503
98.5167445675635
98.3550902705429
98.3496995514093
98.4411869145194
98.4071545450121
98.4679544639363
98.5660096047423
98.6499446405951
98.6134060303495
98.4924507458439
98.4523471754945
98.4597436356973
98.5308864563811
98.6212889385056
98.5981987280076
98.6379171821819
98.6021768553478
98.4599275739186
98.5285957180124
98.6600869527603
98.6422110759468
98.5630632642742
98.5095568351285
98.5391824978338
98.591376214456
98.6430119843357
98.69119877161
98.7370418027829
98.6872767485687
98.6211722204528
98.6682278472301
98.6983135091546
98.6319195934566
98.5760105506751
98.5173468555162
98.5171284669043
98.5940431838489
98.5956627033658
98.6422515540825
98.7090473058879
98.6886606485702
98.5315662020145
98.4869024488125
98.6612871553438
98.7388094851187
98.6760511150287
98.7395403862786
98.7674106328618
98.8030105457506
98.8168711586364
98.7280649487064
98.7336265472754
98.8266511577428
98.8394021327583
98.7865991741303
98.8372465433315
98.834202925259
98.7405067562703
98.7315712300357
98.7432957984044
98.7175595924219
98.8055210326684
98.8944938689761
98.8844172959807
98.9513761671095
99.0492644124643
98.9999884256122
98.9298158716152
98.9594052095239
99.0679752381833
99.093627282194
99.1157332688854
99.2855007807356
99.4277532151465
99.4464682211871
99.3469685043602
99.1996073574316
99.1325330781096
99.1551275780213
99.0946292746091
98.9500917246056
98.9127872138777
98.9575801714058
98.8860712473493
98.8749951132091
98.9168151318862
98.7905717275394
98.7497288904997
98.8190879076431
98.7830089607772
98.7896429685741
98.9045746828486
98.9585412210235
99.0292878112175
99.0361618008427
98.9267594736614
98.8726598649961
98.7628277054975
98.6629950570062
98.7295885648662
98.8049647272751
98.7793353987864
98.7167781089973
98.6788582377682
98.6788015386378
98.7111542789882
98.735646429326
98.7339088503514
98.7703007488665
98.7990828023157
98.7305889044614
98.6670895249115
98.719274387939
98.7683755773661
98.7708334541791
98.724943570292
98.6753671790618
98.72130867936
98.7674403574966
98.7434189062403
98.7601638422238
98.8331525103564
98.7925499528412
98.7397634848491
98.8149556255954
98.8617612059078
98.8226677428911
98.7780741803212
98.758451250188
98.7624614442016
98.771506704424
98.8111591812875
98.8510729711928
98.8092742137919
98.7695355778826
98.7991472504628
98.8400045296104
98.8370918942643
98.8037623565801
98.7819384095238
98.7873596571232
98.8033635818893
98.8345280508937
98.8728490229858
98.8325751398874
98.7453044371564
98.7222318887163
98.7538284440444
98.8103549427125
98.8189988662454
98.7939661957604
98.7902426949982
98.7708689877395
98.7436892478274
98.7403041015328
98.7627923769164
98.761862396194
98.7998749516308
98.8447139877584
98.9200103689602
98.9522005939326
98.8564118911326
98.8221193426812
98.8715578369585
98.8663915935422
98.8307640688382
98.9174443166988
98.9923888003654
98.9615603491182
98.92866954172
98.9607712390079
99.0153263410836
99.0642343838569
99.0854450024024
98.9559412711471
98.8386270150714
98.9333039488269
98.9626842688607
98.884050195702
99.0166384016825
99.0728179435422
98.8973929087064
98.8691617085089
98.9351888696648
98.9116756288643
98.9289943127997
99.0190440407571
99.0200321821137
99.0182241960625
99.0610800759721
99.0259598584984
98.8902898240391
98.857180701287
98.9865120422652
99.0513744889981
98.9991285182277
98.9867180650058
99.0076571400714
99.0475848321215
99.0633485048554
99.0223866957611
98.944607324245
98.9597170061681
99.0441727901035
99.002809594649
98.9432038431399
98.9835743111973
98.9498622057489
98.9552603363033
98.9849708691583
98.9857482379601
99.0402988548918
99.0953374522249
99.0325628239243
98.9358138427246
98.9568140906084
99.012305172103
99.0194950439963
99.039050023519
99.0454860131341
99.0160202327108
99.0417377052962
99.0437011431144
99.0253624656881
99.1185398086514
99.1599708348529
99.0878004973731
99.0506958865215
99.1396244013708
99.1726480638608
99.0780418602354
99.0458556837232
99.0945500977119
99.1088218253246
99.0971376671714
98.9748124843705
98.9492054502013
99.0650894343841
99.0791111057796
99.0396010756264
99.111355424533
99.0979842397546
99.045533383112
99.126068644793
99.1756674273012
99.0573604696504
99.0442117978326
99.2179914279535
99.2823300417712
99.3528437233244
99.3976120923217
99.3286969658069
99.3323341246681
99.39970661586
99.4954812201377
99.4299323831577
99.4110031374104
99.5200403030499
99.6441586737477
99.6741687377301
99.7060631927072
99.9015266903493
99.9884672114162
99.7407439965229
99.4706390261219
99.5043993046977
99.6461131924999
99.5753427044943
99.7245631836043
100.114923499811
99.9699044923331
99.6377101709793
99.8819851955445
99.990687747094
99.8624200860487
100.065780869895
100.339143379858
100.537470103228
100.633312084406
100.341337783494
100.089583138643
100.165693965765
100.073349003357
100.038092493599
100.214745438738
100.206393910834
99.9502464395287
99.6920774576027
99.570857261938
99.6749828482719
99.7100885265315
99.6745695576085
99.5704362365692
99.4569263818658
99.5338515185208
99.5595416933257
99.596246951247
99.7923718305422
99.6903386620277
99.5609843812842
99.7059357132916
99.889138366604
99.8498023066548
99.6106258859983
99.6044475273894
99.8349654972962
99.8964262917391
99.7023017374718
99.7504751421303
100.057034616971
100.206892100309
100.249233419099
100.356068165293
100.383145857197
100.344621459438
100.270806385051
100.567316977441
100.63615284362
100.313792797917
100.453372821038
100.721030466917
100.617797804562
100.28443398928
99.9722279590828
99.6859445801343
99.9053001997741
100.327158217618
100.329952333699
99.9916694542079
99.9975067973586
100.21937155291
100.390434073967
100.309446665319
99.9029590074965
99.8249034668377
99.8728568035521
99.6829460350971
99.5411578405769
99.6274708289215
99.6594942412649
99.47539295602
99.4381219075996
99.5132895937962
99.4791081305594
99.4112553076274
99.3523904939686
99.3010040454869
99.2884746426872
99.306114766148
99.2750470817818
99.245625788634
99.2570998717986
99.2032337058991
99.1164825386698
99.0540445037233
99.0081494577458
99.0519613958518
99.1121651687003
99.1693398654929
99.155013142265
99.0755273289089
99.0549650374831
99.0834861807235
99.0202159627299
99.0912882510755
99.1784536102897
99.1139627959357
99.1206270315355
99.1071166871614
99.0553908240528
99.0743659314583
99.0745306570978
99.0435719698006
99.0757246619101
99.1356617062
99.1350697986781
99.0734101129081
99.0534945787528
99.0273053062294
99.0581904828235
99.108526026918
99.1469040338669
99.1308975317465
99.1368024498825
99.191443997091
99.2798488246822
99.3086263505418
99.3415561856139
99.4628219856731
99.5673483071773
99.7137367317682
99.8341221046721
99.7811074695183
99.6208093048237
99.5601113300194
99.5836259645313
99.5246385055132
99.5362185061279
99.5490676126081
99.6390517251792
99.5826352386731
99.3594123572188
99.1525586224919
98.9948632641626
98.9782932027865
98.885548226176
98.657632225449
98.4696234972281
98.5138757288526
98.4690134617707
98.3892918897185
98.3604532833493
98.3232418544938
98.2342010095179
98.1548826411023
98.0545591665808
98.1381516169837
98.2557495912433
98.2220211557803
98.0757823732141
97.9553351698418
98.081444361131
98.1332777954308
98.0570764064362
98.0615491109941
98.1357902469152
98.1595353294365
98.1658043198909
98.204313063233
98.2558506219447
98.2932324942858
98.3146204602563
98.3229494791579
98.3459563803248
98.3735519962567
98.4032590021173
98.4523230840491
98.5290097439605
98.5242610149196
98.5254900663944
98.4399869940131
98.4531790431111
98.6327340719726
98.5991804961578
98.5393931382941
98.4466123757848
98.4973386486093
98.59775946508
98.5852922682118
98.5550217175057
98.4959156116997
98.5266952534941
98.6273740367857
98.6112624680254
98.498695156141
98.6292542440359
98.7546258489157
98.7087260674612
98.7162479709087
98.6745185977662
98.7399988533549
98.7847710552808
98.7311246297792
98.691262895442
98.7955463851905
98.8449270952282
98.7420788876112
98.6836080874271
98.6738092031078
98.7750667533562
98.7195688826901
98.667824241265
98.6974941215083
98.643598911654
98.6746036065708
98.6980775280862
98.6783116926907
98.6921580946858
98.6526024703806
98.6891104062463
98.7038875303506
98.6814061775604
98.6836891988988
98.7203928545333
98.7547461975976
98.7718543059602
98.7699776412898
98.8230505421001
98.9201642350404
98.9799857220611
99.0411956823006
99.1096557307253
99.1705949008042
99.2221332939832
99.2522699712034
99.217774099869
99.1720555556103
99.1231083658123
99.0532283886074
98.9888227005269
98.9736148241489
98.9811421552912
98.9385960973848
98.8831206414392
98.8836935329584
98.8790685942268
98.8898159681217
98.9183138696519
98.9021026893445
98.8673453122031
98.8377166597968
98.8037998901908
98.7863098588071
98.7548292012788
98.7408353719486
98.7197285228883
98.6534857196248
98.5946838505367
98.569729965356
98.5482201939575
98.4840847411767
98.4196254397143
98.3982275944366
98.3345489767885
98.2476366118902
98.2114585639077
98.1517354683601
98.0936069376896
98.1107287680409
98.0872435180946
97.979398193733
97.8677399721429
97.7494646186906
97.4964928939522
97.1263104265092
96.7856483868849
96.4817759397788
96.1534561719872
95.7533821469127
95.3182241839386
94.869626368974
94.3479170754242
93.779401433981
93.1534626989092
92.394913421982
91.5184949735345
90.6335309539467
89.9411662917835
89.5879640722218
89.2349398163169
88.5219019533776
87.6127875634987
86.7244145510378
85.865274147398
85.0544816473437
84.3788869753907
83.8482397490658
83.3915460300903
82.9347175610524
82.4799811103799
82.1333455820302
81.9284331765412
81.676216752619
81.2670524332158
80.7661432252652
80.2373341604904
79.7442493253815
79.3233860734089
78.9797415134139
78.6617499881187
78.3638912795734
78.009400064018
77.5069437764674
76.7093958475097
75.5409404389513
74.1016363405832
72.6335209729069
71.3660601407821
70.3295025867933
69.4700702958538
68.707067989786
67.9934908035372
67.4129574460329
67.1178330183648
67.0940325353533
67.1012060045552
66.8735964651092
66.3553710281142
65.7160325425342
65.2349958945124
65.0666501385054
65.1951244106692
65.5379120908715
65.9939785563555
66.5299958229385
67.1487807197242
67.8118151927145
68.4908229319415
69.157791604753
69.8073016327862
70.5169552838591
71.1965589969839
71.7312057367336
72.263711961533
72.8406944753802
73.2991336379444
73.6117307505278
73.9322181324949
74.3827075113697
74.8417085557085
75.2027780962448
75.4742681504556
75.6050872437057
75.5505753777503
75.5223594590253
75.9155918718576
76.7685013891275
77.8169110732782
78.837573923466
79.7241023783599
80.5338217402606
81.2747206378344
81.8962066213583
82.4375006653323
83.0111401312096
83.7295903866022
84.419752362957
85.0947871377195
85.8691419286442
86.6092784837805
87.3272157245086
88.0043198389448
88.6539681476925
89.3034759841203
89.7914532441095
90.1785229431507
90.6879086863688
91.2509272080376
91.6184735689225
91.81587358407
91.9414973415758
91.7525521447246
90.9551071730297
89.4878710500456
87.6810605956157
86.3031501550326
85.6231133244384
85.2121308726936
84.6762982267107
83.6600338426895
82.2050795157906
81.0044517174013
80.5816559037627
80.8282891770486
81.3814395672685
82.02078034095
82.3506181851978
82.5022910306228
83.0197683966168
83.6793160467621
83.9288068091503
83.6693150487709
83.2404187307741
82.758107659927
82.5861073390434
82.7480483448086
83.0749433134154
83.9347677155182
84.6838113001785
85.0469005345092
85.6423752344602
85.5610153169479
84.2720678656319
83.6085272602512
84.3758004073865
85.3950371841392
86.2543917773832
86.7886258504348
86.924603702584
87.0437693160659
87.2550353576644
87.4163017468692
87.3783804429526
87.1486451182508
86.0449731036626
85.1003344693997
