900
4001.38730172967
648.873616496703
1
128
8
99.1412381175508
99.2010830623603
99.1408898587193
99.1433582754347
99.1244609327474
99.1070580757321
99.1519334665288
99.2197051606403
99.2736496359362
99.2817787174762
99.1738814728558
99.1104262785515
99.1641271691444
99.2283219893229
99.1908246519397
99.1621104058286
99.2118418024205
99.160936842747
99.1601734194908
99.2743977098464
99.341301307493
99.2495754851328
99.1385458482705
99.1608632719291
99.2308747542448
99.2072955757897
99.1807279875003
99.2031192276453
99.1934822228696
99.1756574833643
99.1752314995653
99.1805808446153
99.2183028292424
99.3012839285404
99.3262092848138
99.2221968443735
99.1269682896976
99.2066197556543
99.2151642011928
99.1589840951505
99.2097347677519
99.2463445742718
99.1693308551085
99.1684098773008
99.2254084515273
99.262092051589
99.2537243489667
99.1830572116564
99.2107990406167
99.2380742570933
99.2480331732171
99.209996192327
99.2314762048673
99.2407353021777
99.2409064190847
99.3121503699469
99.3426198758627
99.2244375837374
99.1548434313711
99.1990244544227
99.2826276023259
99.272006818231
99.2346641476755
99.2145458184932
99.2499545494926
99.2975483809541
99.2418730163666
99.1128643273307
99.1747978969178
99.3812409581969
99.2716377579714
99.1817212861126
99.1358820609195
99.2359172891398
99.236808156693
99.2096003929004
99.1739241827172
99.0183761811228
98.8607830584594
98.7284227613286
98.4907116377996
98.2191572308696
97.9211056281544
97.925748964809
98.2731524417362
98.4652167435152
98.4697623193691
98.4597887727745
98.5134965585113
98.5416176504603
98.4185906876553
98.2390099954126
98.2719264617727
98.3988320877132
98.2829883760515
98.1821539157566
98.1714154645649
98.1895101954149
98.1884719429134
98.2678630205827
98.2159116276542
97.9872463543815
97.9318470862379
98.1452995442046
98.2872343616742
98.2933563171116
98.4040694934043
98.559002744094
98.7017468650651
98.7278129613305
98.5607961257619
98.514268325095
98.6787929839938
98.6569056575218
98.5788319524769
98.5722973039367
98.4452794485242
98.6040130887278
98.8205303217667
98.7602362860501
98.4287197360332
98.5881601205659
98.8645119102354
98.803842704372
98.8759887730406
98.7921727901977
98.6751199706454
98.8310441945291
98.8866135293365
98.9318912309606
98.9383836663139
98.6296145124339
98.5959920649728
98.8813625301493
99.019697425045
98.8129495095282
98.6125472124389
98.5773900105404
98.7416056870345
98.8888521873417
98.8273019505981
98.798037740708
98.7476897489326
98.519677534933
98.5461797063659
98.7954473125388
98.8312221261699
98.6307668301685
98.5253388680886
98.557692122675
98.7461238394636
98.7813468556763
98.6457860435575
98.624637868745
98.5902376508717
98.6797677932255
98.6641764326133
98.4780825741548
98.4594998014163
98.7246956024479
98.9498335844089
98.6777283596274
98.5570126941874
98.7098630024104
98.513652762833
98.5427638944538
98.5671134911973
98.5100167194236
98.588895877776
98.507393194415
98.4068285870965
98.4089799760135
98.6223528151318
98.6433017482587
98.4180807013583
98.5690943754614
98.7006047752235
98.7003781925227
98.7722579504619
98.7171832049282
98.6707832611469
98.8089874548733
98.6854711945863
98.3994004034409
98.2538954810078
98.4608448375978
98.6004886354981
98.5276032217785
98.4695074674856
98.5890245721309
98.5080934565113
98.3697714224854
98.4591180299264
98.7141243767896
98.7627161586082
98.6600148983578
98.6097674758501
98.6148179684297
98.6291421217418
98.5814164498633
98.558812432512
98.7013251071344
98.6194401478383
98.3749673761798
98.3776151017747
98.4799960811199
98.5413446801129
98.5412169997859
98.5604880440502
98.5211601226746
98.5243167099222
98.6224369332646
98.5968718378843
98.6008439758166
98.4917548843171
98.3540487338705
98.3798043619876
98.6151685113011
98.8142384192905
98.7196973133746
98.5156698802676
98.540401695594
98.6507604144288
98.6388292203407
98.5458676246757
98.5157117721644
98.5126001650038
98.5521900051358
98.6074553986204
98.597746344432
98.6809069839598
98.7469153535171
98.7286780434316
98.7108300406242
98.5354669153226
98.500352532753
98.6446538244742
98.7320599821935
98.7053838440552
98.6280927572386
98.597329235934
98.6738046737518
98.705799156873
98.6440267418049
98.5954380850456
98.6323896963771
98.7120458446556
98.6944058443939
98.7232249742717
98.8515953931576
98.8220125304609
98.7427516364308
98.676892660221
98.67981632217
98.7581265475047
98.7974720896637
98.8323894098358
98.8286626775286
98.6505638199212
98.671209327993
98.7784851414274
98.7580813901891
98.7893951279835
98.7935027786736
98.7274086382366
98.7534387996014
98.8424487385485
98.7899517841546
98.7128815726621
98.8135918554482
98.7936128257755
98.7469765977887
98.8265897685142
98.865256976991
98.8178102570203
98.7676906093486
98.7751755395324
98.7657134610291
98.7641614636226
98.750161447912
98.6680904066363
98.7026697202335
98.7376945850716
98.7516394659758
98.7566783313605
98.7219083642406
98.6619692982068
98.641921182047
98.6572487826173
98.6288781796161
98.6660992906394
98.7239001393035
98.6869193856757
98.6755723561655
98.6925527696839
98.7371001169256
98.8090468420577
98.8640753525943
98.8528464818043
98.7791472690964
98.6977197775894
98.763798193057
98.7918289615773
98.6832084778385
98.7516046597966
98.8130361103749
98.731184485965
98.6897036878718
98.7272838486486
98.7965418347067
98.8437319983005
98.8826340196142
98.8634089759404
98.8305726523669
98.8473970619611
98.9158368075145
98.9480968986785
98.9158201085626
98.9677009882443
98.9388633385777
98.8419558477476
98.9222733483584
98.9483770159695
98.8776372287823
98.8797689782068
98.9350623396426
99.0047308317337
98.9804165149965
98.9231446613401
98.9402936681992
98.9217178055136
98.8961698850613
98.9126407745359
98.8813722366616
98.8811489305989
98.9525122377435
98.9978137513675
98.9823028470376
98.9539655746295
98.9567723076895
98.9734203203114
98.9557286556124
98.937928900788
98.9684441239161
98.9643778831572
98.9488164574909
98.9704679822232
98.9795829284093
98.9646009976019
98.9268233271425
98.9619897190773
99.0487493159785
99.0194108009913
98.9465053756726
98.9472216385494
98.9955605486375
99.0380711157403
99.011633462403
98.9839812383693
99.0022166513083
98.991319878571
98.9512537938155
98.9087579686766
98.8800912486372
98.9118638335484
98.9751881452784
99.0036656629658
99.0034531450188
99.0103204631004
99.0188897628533
98.9908121168451
98.9266304510806
99.032391054461
99.1858524273922
99.2022242602859
99.1951057412728
99.0666118018974
98.9229777253195
99.0291486538477
99.2029195394973
99.2424272109125
99.2361101573037
99.1296501484598
99.065008964781
99.1620610765038
99.1380001861797
99.1270001570348
99.2210903138305
99.1825550638994
99.1076042497801
99.1457127632924
99.1743605623636
99.1735227260033
99.1895391359353
99.1468145379957
99.2047955018013
99.265870998512
99.197705536622
99.1799939876514
99.1695198020603
99.1484404341225
99.1331983142824
99.1284925059934
99.249993407762
99.3092894917912
99.1888364456544
99.1457906658272
99.2314413375532
99.1896106658273
99.1495162434521
99.1857447156359
99.1818270847515
99.1838597236468
99.2220238212226
99.2366935465899
99.1432812816468
99.1135985365327
99.2174556902551
99.2585404763457
99.2082415909527
99.1699783235261
99.1357441811408
99.1556520228046
99.1739697006571
99.17934286494
99.2403017059507
99.2522237113328
99.2332069598338
99.2741677779655
99.2970916561186
99.2260105987414
99.1721231622488
99.2090813641814
99.2329102945069
99.2655355735494
99.3214947555974
99.3033201425653
99.205402869921
99.1895133885301
99.3167603705642
99.4016024285959
99.3557817070729
99.3254237656382
99.2676989546155
99.2191806139392
99.2491527111463
99.3251433232604
99.4189827295111
99.3876444039907
99.2542124469192
99.1868407481739
99.1527179728252
99.1867727946485
99.2413182337686
99.258224845104
99.3192007098933
99.3945538205806
99.4008224429709
99.3052496387995
99.2300093586602
99.3698622511225
99.3961787549307
99.328369787499
99.4178474472486
99.4896541404851
99.4548153811625
99.5346699432693
99.655057511314
99.6779489892666
99.5471981597981
99.519756036463
99.5931924417898
99.6654529058732
99.7691462392805
99.7849222691732
99.7553276736269
99.7361287369872
99.7576139518247
99.8176899507966
99.8260349248721
99.8670134816024
99.864574567831
99.9571706111275
99.9821357171146
100.034783991458
100.079780467163
99.9212507743247
99.9296515987337
100.018334816599
100.093100303438
100.144323039976
100.285452008776
100.44462233964
100.477933878806
100.436751525981
100.491726701761
100.551479529136
100.53486372649
100.344062628938
99.9808356869495
99.8285231076577
99.8656226141107
99.9112125849484
99.8199187172435
99.727124324666
99.8379766249784
99.8581712736201
99.650530162152
99.5985301158383
99.6614370429777
99.6814141165931
99.7494774341567
99.8693626382925
99.9861711300156
99.9038498907316
99.8068203818246
99.7902281949325
99.739369169536
99.795664475283
99.8359064978185
99.7379078158128
99.9901188752828
100.068236488252
99.9965468030171
100.098091216234
100.175322738089
100.202384486501
100.349761868556
100.339218076838
100.212978982959
100.443401915627
100.515103652154
100.334837002617
100.395237341213
100.446954693756
100.160342939776
100.011522214741
100.166555213827
100.212337564679
100.263569416444
100.34529211302
100.321472169387
100.214015506118
100.094883571302
100.105292866871
99.9547209739903
99.7569010564261
99.9088441841682
100.255492044272
100.154514120176
99.8525699458865
99.9395167058574
100.076646595697
99.8257202738073
99.5357296951521
99.4896636802449
99.6814398498676
99.7324733819733
99.6311950063566
99.4384895554064
99.404389816813
99.4264650534336
99.4093108438222
99.3862556247653
99.2938318652658
99.2684354192365
99.3189084032733
99.2644271053909
99.2173256331688
99.2791034685642
99.3442513900344
99.2427362162987
99.1721407892
99.2062735808727
99.2742531385225
99.2649371795727
99.2625693069319
99.2612598533546
99.2230872626631
99.264133943621
99.3404118865233
99.3525331382966
99.3410197558187
99.3152620780055
99.2214913203009
99.2510067589134
99.3188948497261
99.2909785156958
99.264131125778
99.2258846709843
99.1494065843549
99.1343327834692
99.1999575197357
99.2896701161254
99.2582707504892
99.1543802943029
99.1571985839087
99.2067708741042
99.2669427264948
99.3113018149228
99.2232387735625
99.2206082495089
99.2607794693304
99.2336344569024
99.2900559965795
99.2904869262822
99.1773170246337
99.1086885368125
99.1562641857027
99.2062140384742
99.1483710093871
99.0769117108158
99.0247271292455
99.0765370080487
99.0425990686488
98.9688819005493
98.8720243907621
98.8123489205119
98.8354027442868
98.8333621796552
98.7192240531247
98.6543288374503
98.7376679639352
98.6736033263888
98.5863329200008
98.5203976859896
98.4849549612376
98.4614079379198
98.4336186972165
98.2123634309241
98.1499597208236
98.3390276774488
98.4364401448745
98.3205779327572
98.195757177231
98.3418762990374
98.3277893930338
98.2998356123495
98.2799843751915
98.3200271365941
98.4065308614099
98.4095474970207
98.4087213870914
98.4787346300429
98.5075222398347
98.4591504336271
98.4958051527793
98.5632235197086
98.5748427988256
98.6075069327655
98.6573757220287
98.6831426722949
98.6938131731748
98.7573467626403
98.6608882701886
98.7004175591711
98.8924288963886
98.8473521150835
98.7772325607985
98.6407286247048
98.6855291367491
98.8077561866555
98.8249750321892
98.7836200009499
98.709356064851
98.7919982939163
98.898522039111
98.8254637779354
98.7309346505097
98.8575868039101
98.9655012139272
98.8878307244596
98.8818304032995
98.8619070584328
98.9241062580228
98.9845523661851
98.9408514027469
98.9017054927996
98.9366205623062
98.950295109547
98.9010742469079
98.842085454682
98.7668784984768
98.8718381092815
98.877291074763
98.8696324505275
98.854439497744
98.7808465967439
98.8104134509668
98.8212953751484
98.8419764944019
98.8565470990956
98.8309882076736
98.9151357459123
98.9348979239769
98.8641341820372
98.8856478317419
98.928248293281
98.9133579765894
98.9658046808193
99.0107648232091
99.0029379361249
99.0146692881212
99.0139601220972
98.9967197442487
99.0601827982809
99.0829908330231
99.0289711736952
99.0544069449008
99.1022430269506
99.0939741598412
99.1097449663958
99.1369055605952
99.0686106228263
99.0464534400152
99.1223242650103
99.1076123944193
99.0646545665106
99.068487039241
99.0891532147202
99.0670295221582
99.0483469823854
99.0512248463393
99.0107027730213
98.9696261658132
98.9553696398145
98.9291606909883
98.8732025763234
98.8317619896509
98.7917924078641
98.7494240424189
98.7118410146239
98.6529432493175
98.6482521311992
98.627171758525
98.5446431770381
98.4578617996809
98.4015378855991
98.3272276106872
98.214863796768
98.107258322387
98.0146786342643
97.9182726648938
97.8140990361506
97.6490869527515
97.4467617062704
97.1931954517631
96.8393714937995
96.4453478852213
96.0472685642968
95.6524710622184
95.255145032123
94.8300846394437
94.3822046931666
93.939354871977
93.4713162397719
92.9329127827186
92.2978425027523
91.4977909970496
90.5847735745778
89.6457421546059
89.0431081040064
89.0749830612065
89.1542265920174
88.6975513763136
87.9531691693524
87.227086934491
86.5316355595854
85.8533497922571
85.210587022332
84.5708154131308
83.9023364785029
83.1667573561036
82.3879781285607
81.7489162912452
81.285084951677
80.8298750478925
80.2879626521669
79.6102034056398
78.8962632113733
78.271892442211
77.7153066486399
77.2117600686417
76.7479964931009
76.3650257741263
75.9851533621528
75.3917756365937
74.5069974714075
73.410740443802
72.2411208308492
71.1731239165728
70.3438769856246
69.6336474738048
68.9375613087476
68.2863011684206
67.7372049364348
67.4396908899813
67.5294575355618
67.9479942080699
68.3979849386942
68.5530147622016
68.3534924543389
68.0143267079498
67.8635482837696
68.0916687463719
68.5942416030386
69.2732492922329
70.1073153576969
70.991922137357
71.8500819041139
72.6798058279489
73.4974119678767
74.3046136333307
75.0490120278366
75.7038489291675
76.3218744255865
76.9295153451384
77.4878556013527
77.9848717111961
78.3044888809489
78.4178551783162
78.570771884199
78.8782840035741
79.1909690385244
79.4478920005849
79.6194733413865
79.5257875668506
79.2100548528636
79.0346873701986
79.2849921346687
80.008060365913
80.9922456967684
81.9232793284772
82.710283110639
83.4463281218041
84.0876603994544
84.5760171986183
85.0143119273812
85.4804161328081
86.0139579871586
86.6535238701033
87.3584419123104
87.9708108327328
88.5466781955457
89.224895885372
89.859653485863
90.387275022525
90.8391206315931
91.2796198968544
91.7509775299898
92.1259552349574
92.4410192287345
92.7190098154336
92.78389190926
92.571752781365
92.1003263533209
90.8688183280132
88.3537605177441
85.3681949809468
83.327387487702
82.7650988448013
82.9744192450403
82.7778225019713
81.5529481254156
79.9807060170058
79.2752429640732
79.5566047775355
80.3240067710507
81.2320049020475
81.9982159522784
82.5095208826921
83.101899449205
83.8653611143972
84.3263075927985
84.7287873262922
85.4357751514534
85.7546319799347
85.6179586550892
85.8177869040529
86.2292179456065
86.6731015014557
87.1046285207767
87.5612818138024
87.954654139335
88.0536818010298
87.3715630888995
85.3737045683742
83.5971260464804
83.4987489820544
84.8086440384618
85.9253399907937
86.1717630309946
86.7632648235062
87.3812984144538
87.9748858830227
88.2236614068615
87.7592100146504
87.5394881266124
87.8971088412638
89.3630558980544
