900
4001.38730172967
648.873616496703
1
128
8
99.5822712894834
99.5397610091925
99.5430638478146
99.548027904859
99.5165332250993
99.4778407542309
99.4888391243608
99.5489654090642
99.5786076450901
99.4936453966536
99.5127702962672
99.5650915494384
99.5075200119495
99.4486482778133
99.5016597738943
99.6034868781429
99.677324420281
99.6545100483232
99.5278921502119
99.4771508675696
99.5522483925395
99.5773945744162
99.4732910331716
99.4311013833532
99.4703710155595
99.420172031058
99.4419276742493
99.52129208281
99.4971947216279
99.5658798026202
99.6261540072003
99.6494105824843
99.6740112897503
99.6069356417703
99.4672995994055
99.3664152120913
99.4616907913508
99.5845785496549
99.5692043337962
99.5786722375576
99.5988994391673
99.5851521805821
99.5045922112268
99.5111049842212
99.6047593538112
99.5799919810453
99.5183507300816
99.4640698204265
99.5182662484177
99.549486312204
99.4623725392094
99.5289067852748
99.5189038967716
99.4481189631447
99.5554928528272
99.5722678644991
99.5607224086858
99.5906261914715
99.5898150069086
99.5274901732035
99.4808211522613
99.5677945171539
99.6322083480499
99.6043432219257
99.5769590333312
99.5869994794781
99.5874474808313
99.5498204220988
99.6088814361339
99.641383264573
99.5971357205458
99.5379423019121
99.5252905508013
99.5377141984565
99.5260702285517
99.6040743944569
99.5807254673927
99.4400633371295
99.516158082048
99.4440779581256
99.1724294163962
99.0719725498993
99.0890890500676
99.0720632473334
99.124077097858
99.256480461957
99.2194544699136
99.124696093914
99.1439843427197
99.2611162017778
99.2406301011001
99.1401461426757
99.0972779800484
99.108524173635
99.150293490914
99.1481085590489
99.0999757021332
99.1657256424134
99.1080311695751
98.988340698545
98.988895516164
98.8599435770421
98.9214090714139
99.180731350612
99.2099839155042
99.1222439357052
99.1299553900754
99.2044549666154
99.2715645991593
99.2400986967853
99.1248979281628
99.1142636422125
99.3670793932709
99.3419497547155
99.0451767278531
98.9903995796654
99.2262915459599
99.3917805752109
99.2868127206944
99.1267124484743
99.066873981933
99.0637442381632
99.2009074862381
99.4055684016569
99.4108166484265
99.2504881740052
98.9247111131278
98.775265212338
98.976825525591
99.3221215924599
99.5390060552727
99.3595418944447
99.1021201233262
99.2831299645104
99.3834424944098
99.292457130927
99.1859022548132
99.1621960692223
99.2995453569648
99.1727198388002
99.1221864421512
99.3066678728326
99.2069438414675
99.1335761193567
99.1871218741739
99.071416441367
99.1991186276145
99.2985376101152
99.0812402382932
99.1369779719016
99.3756942650304
99.4584906669132
99.2244206182389
99.0384875113597
99.1123061322958
99.1000732964853
99.023879527837
98.9987153250116
99.113309906004
99.1415253139183
99.0587752464149
99.0821325455297
99.1815779745227
98.8663676630038
98.7604621394274
99.0707301972391
99.1177593429516
99.16099572521
99.1452464459712
98.9842585962948
98.8811694442697
98.8655943720238
98.9041959838837
99.0468387490799
99.1486655782671
99.0745187267567
99.1636060822906
99.2141321243127
99.0890033186154
99.1439417611856
99.407912632963
99.2372192579506
98.8651703162768
98.9735142701829
99.1856921265917
99.0927813753432
99.0582729425189
99.1232655164748
99.076895580357
99.0783648274243
99.0751935086627
99.0345018061991
99.0143506932196
98.9945936127048
98.9061140154668
98.9368145885017
98.949563412186
98.9144474548728
99.0415641662386
99.1362216048832
99.1223198434688
99.1163631169178
99.0423088841031
98.9650352271452
98.8731974022316
99.0687554199077
99.1000328935476
98.9952656557022
99.0316626228816
99.0460521279012
98.9783983389172
98.8998230174131
98.9589661503741
99.044046390377
98.9332766790398
98.9849614303124
99.1151385544781
99.1085270212378
98.9679983732096
98.8653414456584
98.9510807564697
99.0991036087928
99.1271931142486
99.0869466368264
99.1508510398279
99.2637878096728
99.2115112024604
99.0683530574246
99.0468041113209
99.1160957156731
99.1465809950002
99.1759550449038
99.2249816221114
99.1089855480595
98.9662225235301
99.1321344024711
99.1743205401959
99.1133521832348
99.1896448752596
99.2136337455731
99.1208640682288
99.0681291187971
99.1379923688815
99.2112242399341
99.187547747571
99.1676756927129
99.1511659981948
99.0768260943756
99.0643722778429
99.1696558770788
99.2446475107966
99.1923666629042
99.159220115328
99.1150963119995
99.1221725703981
99.1275093849685
99.0916246601137
99.0952667727383
99.1695911863443
99.2715525184697
99.2307209979226
99.1342393001016
99.2068434124496
99.2265518831558
99.1983237877412
99.2397231648866
99.1870752937379
99.2085995450709
99.2819478914197
99.2187977156244
99.2044904125592
99.2018360137963
99.167900529417
99.2215316864697
99.2343606954783
99.1975246843791
99.1408588462021
99.0383323540085
99.1051890536208
99.2515896271076
99.2090406553732
99.1332166466123
99.139808446483
99.162884443042
99.1811329100667
99.0746836093214
98.9521553250174
99.0152327311724
99.1224137163923
99.1182779064116
99.1237683586074
99.1128244899069
99.0137651899739
99.0363403382375
99.2019534507668
99.2314697871554
99.207360600551
99.2470479490765
99.1918195802494
99.1758381867492
99.192611948356
99.1017309891568
99.1043408889865
99.2092484965167
99.2175417631632
99.1511499745289
99.0525691696652
98.987241917584
98.997982923699
99.0943949540394
99.1920298106595
99.2448969395971
99.252824425858
99.2400285538694
99.2088830685792
99.2119136705447
99.2576293233843
99.2677185330315
99.2536258791039
99.2804542705226
99.2956690283869
99.2965638211307
99.3210321331081
99.346338069577
99.3262550341132
99.2999191724627
99.3204034913664
99.3543282113859
99.3275319310589
99.3299170095613
99.3884973959763
99.3521482986633
99.3462540564243
99.4135824867602
99.3430279745594
99.2556623890204
99.2839760531393
99.3182815430011
99.3755903258812
99.3965090788387
99.3556280216782
99.3465609637028
99.3246231939127
99.3123319083989
99.3579991986273
99.3740200773519
99.3139779442402
99.3227137527448
99.3817551231693
99.352729668975
99.3043624758181
99.3292149088769
99.3373352114007
99.2844594002181
99.2913158855352
99.3517528766158
99.390132880771
99.3946740035957
99.3465720133503
99.3007126235121
99.3224758366997
99.3560078788972
99.350265352554
99.3230260732517
99.3293387010851
99.3651633680962
99.4040382041412
99.3804050975565
99.3233505112899
99.359734203854
99.3732038759954
99.3264957738401
99.3482459854753
99.4322018644037
99.4100512384126
99.4080601863337
99.5216968778207
99.4428962106473
99.3108605632555
99.3639510591246
99.3654083941732
99.3568528737892
99.3932088107719
99.3624821351421
99.3750381830849
99.38653672964
99.4683944518315
99.5353278209191
99.462317330546
99.5360107506834
99.5611449821901
99.4137357076707
99.3420624199966
99.4059708040962
99.3654524205492
99.2694186493314
99.3884174032589
99.4132883102967
99.2704518397331
99.3285549830505
99.5458589856904
99.5739277921785
99.4334356825973
99.3313954753238
99.2578214038092
99.2991354851702
99.4216869118324
99.434914638508
99.397169337283
99.4769599827811
99.4779637614623
99.279709154835
99.2433836946908
99.4320682327201
99.483866033598
99.4294115049235
99.45217507212
99.436125035001
99.4294294272753
99.4543205671398
99.4482288127118
99.4666745867979
99.4871441392855
99.4769531744308
99.4938038130129
99.5374836357958
99.4933807773963
99.4506864715019
99.4864697856231
99.4567571975407
99.4788342045839
99.5771617300937
99.5262907839069
99.4433622418075
99.4125889308323
99.3366372975624
99.3694572363468
99.3670327390881
99.1997415785122
99.1165270424582
99.1392278510442
99.1637664907022
99.1589212165909
99.196345585987
99.2318404264488
99.2237101779781
99.2378890230307
99.2622974424163
99.2230805853958
99.2177139876002
99.227073333154
99.2066515669963
99.2839406834476
99.3570897290769
99.3564714915671
99.3945295247171
99.4666211213117
99.4927441522595
99.5712069211731
99.5771181283461
99.4487687098269
99.4335112017199
99.4459099140269
99.4165481786799
99.4412753492374
99.3643176503386
99.3603433289549
99.4998176983093
99.6834876572858
99.7148159432218
99.4725633089104
99.448053158686
99.6293143380339
99.7688703031135
99.6389332543539
99.3784899798484
99.4434565390521
99.7124294558695
99.8001213855788
99.7572634680053
99.7335394607457
99.597895831526
99.5392096274232
99.5665461051871
99.6961945708118
99.8026978368364
99.6346151257825
99.2546236223717
99.4746505984885
100.038407530416
100.162130327936
99.9925393488942
99.939682415708
99.7446200341554
99.9441435212037
100.116519076544
99.826868958266
99.6887200409173
99.7171460498965
99.7218665777799
99.7292756091424
99.6519378642531
99.7488165381785
99.8078832846502
99.7578948646413
99.6346615445759
99.672754237663
99.7203944277089
99.7087280222408
99.7231592288224
99.6329727536094
99.5894037810199
99.5992081036187
99.5728439791098
99.5205393175844
99.5947922568888
99.830574522003
99.7848430954027
99.5507518771274
99.4308618854257
99.6011240359265
99.8149063098462
99.7546248638891
99.5913861762945
99.6455930795247
99.7868492883978
99.8442514811787
99.9086481155533
99.8133339128729
99.6960473125365
100.007160227089
100.303161829078
100.238618062247
99.8792940510828
99.9834458846649
100.179602065213
99.9361927783846
99.6443386747004
99.7412869405575
99.8977706812063
99.4442082807506
99.4830163155005
99.9035953232904
99.8484481744518
99.7992551409558
99.7150757982905
99.6815982449562
99.7699100483853
99.4451248309909
99.5720876880726
99.8267536307585
99.721372372624
99.6532682479572
99.6673530443082
99.541745904806
99.4018575062456
99.4745562454503
99.5374916169678
99.5025238910405
99.6181172453
99.5811899420294
99.5084597266203
99.5279296450895
99.4883588215808
99.3572487922184
99.4075453554286
99.6020596971991
99.494651310774
99.369666754295
99.443774633809
99.5005385230746
99.4586712198442
99.4330166434107
99.4441036892801
99.4084087856493
99.3804302097212
99.4480971119985
99.5289341419943
99.5502417353154
99.5086355874639
99.4844942879432
99.5292062102644
99.5190022795418
99.5184959273655
99.5407621427778
99.5097671603188
99.5134350338463
99.5304926541037
99.4871280526357
99.4801370402318
99.4858190871334
99.4622128889999
99.4727354132644
99.5038607833223
99.4784280236144
99.4426636439126
99.4660355909678
99.5363115600673
99.5136541088203
99.4369042075402
99.4769347687573
99.484499946271
99.4649633000635
99.4887117230339
99.4655879676192
99.4447245392189
99.4580379967147
99.3820045719823
99.3239760881666
99.3657593003266
99.3665748628587
99.346154132722
99.3918671076451
99.4097152433352
99.3252285819138
99.290766982628
99.2972254635614
99.2687130360973
99.2612672103954
99.2681196920226
99.2572412551826
99.2575013149957
99.2188475791634
99.172303009255
99.0856214290121
99.0276660941804
99.1030841187548
99.1666295580538
99.1278151401031
99.048364393823
98.986016512226
98.9850362567303
99.0142486741899
99.0041357790086
99.0038684790641
99.0145888791659
99.0523325212354
99.0496893009251
99.0125148604489
98.9923661659456
99.0173944839223
99.0503873232082
99.0704509805583
99.013819381448
99.0143039169765
99.1337769597378
99.1550468164938
99.1108393176115
99.1413628095282
99.1873522837503
99.2097396081695
99.2195372755685
99.2473371191238
99.2452814904786
99.2958408108476
99.314299450461
99.2297489313717
99.2817002306833
99.3454612897046
99.3433250463087
99.2985596572789
99.256353661443
99.2410028414764
99.2715139378694
99.3104677628984
99.2799569534214
99.2845612288449
99.3185807255606
99.2997446493804
99.2573812283533
99.2567009171094
99.2983015711519
99.3209619084465
99.3487405774211
99.3184485714416
99.3124149555859
99.3448650537321
99.3271632138605
99.2886665976035
99.277451550582
99.2507613939505
99.2429489279875
99.2578060715603
99.2037294877736
99.2092389710156
99.2813830159373
99.2866424850496
99.2265456378774
99.1613391914512
99.1803276073065
99.2727092204845
99.2998728975289
99.2436589702856
99.2447783480844
99.2712903287211
99.2789212163914
99.3116358474557
99.3229398940637
99.2902207653041
99.2519042493751
99.3040991286127
99.3565117292271
99.3289964951574
99.3011154086169
99.303653172534
99.2915382925074
99.261287670122
99.2853814097748
99.3292242125235
99.3252663885648
99.3235032259404
99.3659589572439
99.3675520093447
99.3281482643725
99.326440819127
99.3076849446234
99.2844535025777
99.3315331542072
99.3607434580836
99.3401445440031
99.3223182684017
99.2981224238092
99.2997125275277
99.3298537392013
99.3000762254207
99.2304524739346
99.2334205963642
99.227761318435
99.1919740991006
99.1904564128764
99.1363329221944
99.0940763372254
99.1055877961528
99.0834458840983
99.0915238719905
99.1051003983063
99.0653165747767
99.0227265717714
98.9687663242045
98.9136760760924
98.8746979224474
98.86351551885
98.8400574164994
98.7669475983102
98.6657368003667
98.5646342091076
98.434408900454
98.2239785540705
97.9662767191736
97.7469623691851
97.5450730661053
97.3346708268322
97.1368365013304
96.8968256470508
96.6186201777641
96.3431479715694
96.0153556783807
95.6174749234891
95.1679346706446
94.640475374914
94.0381562878879
93.6685932982463
93.7599815337358
93.9041428072776
93.6874733910139
93.2919866130746
92.9258503083039
92.5731123367146
92.2463156176051
91.9316830352727
91.6225107333385
91.3527828387639
91.0540566610201
90.6761892191508
90.344238674752
90.0748108319424
89.7378490612236
89.3565165839855
88.9712867567614
88.5362188762248
88.112563404723
87.7543966983061
87.4502049247256
87.1603396996267
86.8473673973752
86.5025196806194
86.0953423517175
85.4881700518625
84.7034619174623
83.9512588605556
83.3065360733969
82.7776718766604
82.3632977065995
81.9915031880267
81.622606829207
81.2629372846289
81.0507759098524
81.052919668356
81.2345948826668
81.4551109564077
81.5815850827662
81.5621236140423
81.4325419224688
81.3371894868921
81.4000055333395
81.6191385286819
81.9418909478818
82.3299927486586
82.7801706350535
83.2576172003601
83.7488701356041
84.2644157305432
84.7384219648303
85.1553983001637
85.5734611906885
86.0173528890124
86.3876024085376
86.643309037478
86.9332351443432
87.2142937961645
87.3802263271455
87.5270316783904
87.7041223366043
87.9291805524617
88.1685212705545
88.3080098054229
88.3483048237018
88.2965468012418
88.2593761059469
88.4216792759756
88.7944461183886
89.2710797696183
89.7998342381252
90.2846935822961
90.6649303204468
91.0207890513911
91.3574655020903
91.6024368348091
91.8317355064585
92.1742167270324
92.5849725908448
92.9405446181246
93.2131774099933
93.5043339008793
93.9226452765901
94.3217831264805
94.6456423617349
94.9811212471839
95.2955716136337
95.6271048881403
95.9489027626114
96.1874224888174
96.2252280831603
96.2046697587276
96.1602466562143
95.72883000412
94.7237845503873
93.1299573282956
91.1373050626791
89.5050830645578
88.845621294833
88.8439330950217
88.6921378933155
87.9571364093949
86.9017427376344
86.262158961429
86.5098004027306
87.0613331201706
87.6959542594199
88.3138620246345
88.6882823512177
89.1084141693066
89.6201895772342
90.027556743854
90.550161271876
91.0968781303666
91.3544753067469
91.5478465156151
91.7042918367929
91.789841268241
92.2628490709308
93.0134928028227
93.2026613990858
93.0387787809846
92.9703649717436
92.5384440725122
90.9557315714288
89.5223215621741
90.0319985090255
91.144163959998
91.5725445699923
91.8555402843895
92.0618584157312
92.0146625316668
92.6274730087361
93.3616402907169
93.2160032121825
93.286517950235
93.7394800451358
94.2720364361448
