900
4001.38730172967
648.873616496703
1
128
8
98.7555079869185
98.8545790357327
98.8980678912213
98.9035991360521
98.8711578289757
98.7639404230045
98.7654746747798
98.8180256713596
98.8123583695613
98.7538506174635
98.7529280055738
98.8263243835886
98.8601210692242
98.8174315299239
98.7517745356106
98.7453769033349
98.8101867767138
98.8673054164835
98.835233516281
98.7946812309863
98.8038257996264
98.8663666152981
98.902539330077
98.9128539550629
98.8488552571225
98.6977059432569
98.7075922659232
98.9597583274963
98.9706418670759
98.8761043245551
98.8254411074617
98.8473641478372
98.8390639751036
98.7214177856555
98.6947567690628
98.8778651184429
99.0286621366392
99.0512108488453
98.7590497535134
98.645719055182
98.9532485522555
98.9841222351522
98.8172543426101
98.7508726737384
98.8620958793989
98.8713025941193
98.8744432741827
98.8213317182945
98.7573654601289
98.847252888308
98.9873036114127
98.9753528230079
98.9221447905083
98.9186501629459
98.9408517012335
98.9840320910507
98.998583091679
98.8869048986845
98.8551388189465
98.8988156065723
98.9348894325946
98.8600739234069
98.7548356370474
98.8411712937401
98.9073486243744
98.8555777458857
98.703239685467
98.6605670442979
98.7786402443544
98.9611420370982
98.871770867771
98.8324588768284
99.0092337011366
98.9839968813901
98.8880685297028
98.9215409867581
98.798851675798
98.68636522135
98.5902480217715
98.3644539896351
98.1123459709416
97.8800747489761
97.6748649297825
97.5964935668068
97.8350788107574
98.1839848944597
98.1033168865458
97.8718373205296
98.0340958601711
98.2416434091126
98.2109768675951
98.0595875705998
97.956899961302
97.7299006837123
97.6551762970145
98.0557359945812
98.1168303186025
98.0237343463394
97.8230627509288
97.5734181646061
97.6921400595711
97.5259737614565
97.3375784462262
97.675942531729
97.9087221436385
97.9877529113888
98.0364753381485
97.9595191050285
98.019408820563
97.9930982549935
97.9723224373711
98.1763088583447
98.4657538626468
98.4022297388806
97.9798160220215
97.8502934887829
98.2236010786384
98.3285563608057
98.1843923737264
98.1070489284677
98.0991764402105
98.209019516623
98.2838670202213
98.312514729841
98.2394279181602
98.2195387188968
98.2684540965924
98.2546430353761
98.2790435050174
98.245232680076
98.3409948109202
98.3316019780667
98.1627179710651
98.3034786179793
98.2577961108594
98.1390234536038
98.2387241706888
98.2989882595694
98.3674183690902
98.5108626482694
98.5348228326112
98.2709837244906
98.0603039421759
98.2095529528038
98.2558055295526
98.0770831258659
98.1161947536056
98.1126345989442
97.9964055748948
98.1508030325511
98.2388471782212
98.2916703912117
98.2664158635014
98.2146484001088
98.2326418186056
98.1012406058476
98.1678211152448
98.4542960173911
98.4486743330597
98.3483929453158
98.2202585585116
98.2306535897513
98.3230376731294
98.2590989724203
98.2428184533147
98.4319944480842
98.512206101571
98.3989500902045
98.1969078529957
98.1896605841551
98.2931169607697
98.3898405664483
98.3956547699214
98.283059043355
98.0166555457364
97.9266770512747
98.0993614905138
98.2554505208674
98.252773371032
98.3214432980152
98.1942330701837
97.9989889156314
98.1232177724571
98.3170672219274
98.2935002069788
98.1183272045575
97.9425840867086
98.0258767808303
98.2983086201719
98.0983991398197
97.823862111003
98.000297392314
98.279718366554
98.1504163553519
98.0092426432325
98.1260024689867
98.2177886968396
98.1068055403846
98.0841994319058
98.1893942536133
98.2421292680091
98.2740095951276
98.1557777631546
98.0564702998449
98.0747813815589
98.1118878279976
98.1747632941519
98.2121847962401
98.1869640240053
98.0961460157222
98.1202710155591
98.305383222868
98.1667916654938
98.0114209930164
98.1708615070545
98.2073273726717
98.1734024036699
98.2316078041379
98.2160847997332
98.0886009692127
98.095238336757
98.217144476961
98.257346392686
98.2855026521595
98.291786950372
98.2494589780825
98.2106748893533
98.164719069595
98.2150940365688
98.1929183933653
98.1237382144206
98.1555481607999
98.3261532024857
98.4114223362178
98.3385429576648
98.3967064615635
98.3523089616079
98.1604030209237
98.192193020236
98.3389430021667
98.3161402754763
98.3230703069621
98.4544378809818
98.4734597083883
98.4031550925355
98.363421318602
98.3210557546295
98.3641561398833
98.3987207994501
98.4220102441448
98.4957047217951
98.4623600738727
98.4171286027336
98.4755873628065
98.5094011399374
98.5343594850985
98.4897887735297
98.3404937833539
98.4142828333125
98.5315774933975
98.5257219307142
98.5556582725695
98.5260635373122
98.4722895436403
98.5529511914407
98.5393953670784
98.5692086057568
98.6184617920643
98.5894369450942
98.6102157060997
98.5643063789515
98.4669322281336
98.4984042403839
98.5744316154848
98.5475823653318
98.494537237119
98.4539852426601
98.4728206066609
98.4442904706109
98.3466702751989
98.3649279054673
98.3951199240278
98.3185462133881
98.2676537965686
98.2626000302843
98.2758029027266
98.3528484159862
98.2082845890609
97.8913198822567
97.9007930166132
98.0776353397681
98.115212539275
98.2598223683789
98.3747994561598
98.3014979970772
98.3301803978713
98.3678472205671
98.3714535805883
98.3620047166461
98.3880586120422
98.4496698151857
98.4042024743909
98.4070902741391
98.4292989057202
98.3391653010035
98.3214090447361
98.3834563307913
98.3622518147925
98.3095234990601
98.285351477078
98.2636726502601
98.341824500219
98.4588002747408
98.5152803989307
98.5386509337374
98.5522925422903
98.5020966657674
98.4838144107271
98.5739772798307
98.6317087594844
98.5872869814649
98.5772925434935
98.5675084598257
98.5797486242554
98.6590571226681
98.700094121122
98.6780520396855
98.5986583382104
98.5492593807409
98.5754150172302
98.588941009859
98.6251377624358
98.672470933633
98.6888802930937
98.7169817448481
98.7085733183223
98.6865479946403
98.6579147643664
98.604526896487
98.6255747461816
98.6807363842283
98.7019356154074
98.6928235811692
98.7035648955685
98.7195327345754
98.7248479365442
98.7579530644096
98.733536662091
98.710784379631
98.7135834938512
98.714388591708
98.7196959879458
98.697890167918
98.6791745157634
98.6681202127145
98.6809447990788
98.7464769091347
98.7775693463015
98.7444249564546
98.698875666052
98.6723061761487
98.6983158345982
98.6512919827209
98.538379916332
98.5514902644982
98.6538872213267
98.7230831498981
98.7681172120551
98.7395710559323
98.6082841951112
98.5372157033338
98.6079776621851
98.698433576595
98.7510895217143
98.7528661110187
98.7339831465079
98.7562092324744
98.7706439156386
98.7700617217991
98.7854155242014
98.8276860657925
98.8103340872376
98.7147156656516
98.7840469723222
98.8729880534449
98.8873849690305
98.9636731594845
98.8915427681745
98.8548817490139
98.8986598106759
98.8170579762547
98.7417765597016
98.822531879683
98.9556523488158
99.0214915480084
99.0178921250476
98.9737461633988
99.0021382386085
99.0793778613719
99.087717133878
98.9190373501635
98.8627124213522
99.039117148151
99.1017743828823
99.1271519163667
99.1625127740621
99.0385103293667
98.9254704114793
98.9457635188457
98.9318007659882
98.8849487229644
98.8855627789887
98.9551981185292
99.043127997654
98.9878515357019
98.88405187427
98.8582120730723
98.900190841888
98.9538776024037
99.000952136399
99.0134628083081
99.0644578318345
99.0775057027731
99.0645552174718
99.0082344511904
98.8794286412139
98.9153817048823
98.9858482081601
99.0041192331214
99.0219808555003
99.0373363430941
99.0374627920626
99.0039259035574
98.9578830441569
98.8613029993115
98.7095435748448
98.6117976532172
98.6198897796008
98.6627126715422
98.6287233442291
98.6380883745121
98.6824389654334
98.7550409509051
98.7150976567911
98.5868556416667
98.6192293878852
98.7275169442348
98.79108874191
98.8114486448967
98.6538313928464
98.5619709628002
98.6168932080447
98.7567736739655
98.870250816956
98.7978661578277
98.7934036476879
98.9158122524153
98.9807245746786
98.9690127705944
98.8706390700573
98.7940237565843
98.8136825247121
98.8865107449162
98.9210651489504
98.9950316048723
99.0865411170874
99.1007221643347
99.1040259123942
99.2422026836753
99.2313317496864
99.1806067557218
99.2374213374579
99.2570330908116
99.2076679887438
99.3072584382612
99.3659882163782
99.332455583839
99.3255082347368
99.2262169310461
99.2338602045806
99.3367719272751
99.493163742455
99.8731083988279
99.8888844883876
99.6599737761332
99.7039105965816
99.6611947857292
99.43275257158
99.5144505100212
99.6205618337077
99.6744429102706
99.8790881308112
99.8827015278227
100.066052266734
100.363661789555
99.9477032704616
99.5217596802271
99.6288774069906
99.866949756457
99.894340366227
99.8881015857522
99.7777158294961
99.6098502834295
99.5419971142019
99.5464296616391
99.3828233553165
99.2382308601646
99.3817493987328
99.4972159864043
99.4796226641102
99.4916897649378
99.4176978341846
99.3662877465822
99.3415041865019
99.3914802971296
99.5000169402784
99.5340322710891
99.5320285219832
99.6425545722159
99.6750942303761
99.4613861289835
99.3015694447479
99.3794983025145
99.5026181666714
99.6765181081364
99.8348204227102
100.124223321575
100.010959271104
99.9300150975727
100.003330325275
100.198961922441
100.205968587011
100.231215906935
100.405259263722
100.351648886347
100.133355427655
99.8123002156144
99.6642135338708
99.6910890409512
99.8001567960397
99.7902986854687
99.7395803570049
99.790780445279
100.148768983994
99.9498806207634
99.5918534528268
99.5825138493558
99.7096424330006
99.9320320234704
99.9004297929149
99.8543274826093
99.7554591932044
99.5557342080653
99.3892719138601
99.4123362507643
99.4015265710744
99.4090543926221
99.4030864901828
99.3499937859667
99.3502390022094
99.322498688321
99.2305011231108
99.2739623982356
99.233461945188
99.1548854331538
99.1235744442347
99.0974989945942
99.1153396544412
99.117543175031
99.0813964646826
99.0511848677762
99.0267923796451
99.0664532258269
99.0305279261708
98.9645114071325
99.0315280793905
99.0289094124192
98.9491838431879
98.9880572790434
99.0453919078133
99.0803354165764
99.0572391534043
98.985341664736
99.0545339562302
99.149351891253
99.1609801756775
99.0986355982734
99.061511454264
99.1111271515591
99.1042166206133
99.0780539298515
99.0169081979544
98.9307967630597
99.0354685310793
99.045746322711
99.0177660315532
99.0437869703169
98.9845199086448
98.9830795507711
99.0360419954202
99.0048424896022
98.9871608563527
99.0196546224882
98.9262548482807
98.9413604433212
98.9275303840816
98.7617799766671
98.585900254374
98.5232167055779
98.6769105412754
98.6300619307331
98.4295869700659
98.2394152529357
98.4576294971139
98.5436529722378
98.3662805290601
98.2422808797593
98.210557656717
98.4380028100453
98.5264387357622
98.2593488743179
98.0600450324434
98.3037198732121
98.2247974186209
98.0401174450706
98.0774899623497
98.1521341472845
98.079746618261
97.9484610535485
97.6933705312694
97.7905631513114
97.9572848017126
97.92264982856
97.7639978894532
97.6419092783619
97.9026506775344
97.7795287707671
97.6864026769463
97.8111917863384
97.7777507108772
97.8956524604008
97.9077526128819
97.8450570013921
97.9162528675937
97.9517005860391
97.9779154002236
97.9915703610281
98.0395987085997
98.0836632558194
98.016277746922
97.9736337065529
98.1067804297951
98.1659207157965
98.1822567597143
97.9576941376188
97.9367226566503
98.3284713062854
98.3004928633675
98.1846996367278
98.048524397196
98.2175323187047
98.367479153665
98.3121793648913
98.2624508934811
98.1478577740741
98.1723483437193
98.34559160532
98.3459831603469
98.1652592599215
98.4378378417039
98.6492100533435
98.4523363598709
98.4900686132951
98.5026958589726
98.5876561230295
98.6866036974971
98.6288657707113
98.5099862363987
98.4951077996714
98.5872345915735
98.5040197771414
98.3333334772737
98.2515533921616
98.463041626869
98.4056336123782
98.3913778106291
98.3937975070278
98.2508725467581
98.3581637442065
98.4909584694424
98.4160392359522
98.3272215290089
98.2539672886031
98.4109747437904
98.46692679447
98.4053316624227
98.3960575892563
98.3968337535149
98.3843423820747
98.4642561448827
98.479685437745
98.4815074929161
98.541338312586
98.5097287989321
98.4846978536884
98.5262126658624
98.5562659287701
98.5595399208021
98.6255968059561
98.66115105522
98.644037897247
98.6503954945837
98.6766711141619
98.6558077836199
98.6761292038589
98.7380084966221
98.7068402299657
98.7067380437111
98.7336492410961
98.7090395868597
98.6838475117754
98.6887207366225
98.6749245587194
98.6507732584097
98.6323231510479
98.6194916220447
98.621497733992
98.5857273680911
98.5477516688813
98.4859376849102
98.40459666178
98.3333359154984
98.3359890282939
98.3461298241703
98.2835965988926
98.235533922532
98.1971117963297
98.131188830819
98.046139438442
97.9582531369992
97.888739851492
97.8383241481202
97.8099452313357
97.7725959842272
97.7098763817002
97.5928254454361
97.4334760956923
97.2614826129108
97.0544624734157
96.8438252835832
96.6323084052827
96.3994981130352
96.1777954949468
95.9265322539736
95.6217067173189
95.300678102029
94.9458608750545
94.4885739755041
93.9278858610253
93.2859483390182
92.6356669700372
92.3069045802824
92.4783953260955
92.6275137627836
92.3680649018026
91.918517863989
91.4500759337851
90.9920548629662
90.612274656854
90.2826926171285
89.9292945478112
89.484335317734
88.9436634268527
88.405833694703
87.9789242434761
87.6960869393108
87.4442995259591
87.0809988183373
86.6344426144331
86.2263389755125
85.9069637639464
85.6235799772764
85.3621078870994
85.0957051190536
84.7986500372566
84.4170233054445
83.8150470359623
82.9871385693119
82.0546298756782
81.1472258464114
80.2770254073244
79.4596969255782
78.7205501180282
77.9959212154224
77.2969835777746
76.6603969245658
76.177209602054
76.0463582714103
76.2987491265247
76.6150990158481
76.6740330979512
76.4695832834537
76.1128726791027
75.7828824513242
75.7379290585226
76.0648621490549
76.5761356609601
77.1280078940208
77.6600817212369
78.1665431338826
78.7264053723181
79.3147200098152
79.8609542451938
80.3347754633429
80.737089158249
81.1025480235355
81.4992415497122
81.8788896327358
82.1361602037139
82.2744012000049
82.3238840870961
82.346763206762
82.4517131929815
82.6214220107647
82.7145684849367
82.6994005788758
82.5355606130791
82.1384883521382
81.7523913568946
81.809881984502
82.3683573120607
83.1453009460105
83.8555825251324
84.4469435124307
85.027950666064
85.496526647969
85.8540934201884
86.3219097396955
86.7223587401017
87.0191236261641
87.5078663058802
88.1267450451973
88.759451166057
89.3321688089824
89.8170908095364
90.4052288926733
90.9998766019788
91.3854514946043
91.7471248538543
92.2736469995978
92.7800292690282
92.9904377062983
93.1775692782862
93.4719730642242
93.5436643323863
93.1508437900686
92.0797257854114
90.4638575889688
88.6266656383408
87.2326167467031
86.7550082868749
86.6396940235466
86.3456645929767
85.7179929904414
84.848245114616
84.1872070641222
83.9828400675326
84.2154766444087
84.6353131321018
84.9561792636534
85.1829936831895
85.5407459598586
85.8633000178112
86.1374506605151
86.6153025128537
87.053137667651
87.4079886893232
87.6892647531186
87.9464617541207
88.3642391458946
88.4801035386219
88.7355956351688
89.125842698428
89.243824428993
89.377570468529
89.0263940601718
87.5944892513885
86.0976906998134
85.812465900243
86.0978606775264
86.5259091756015
87.4085138904739
87.8031022815253
88.1040847769521
89.5865734446811
90.3721357187941
90.2730422100288
90.8831513772601
90.9791011453925
90.6986822282493
