900
4001.38730172967
648.873616496703
1
128
8
99.7976092776346
99.7098110502524
99.6745677717037
99.7545842695384
99.7307183673253
99.7004594167655
99.732268514325
99.6656169305104
99.6355436709674
99.6735964251871
99.6097344538079
99.614965024799
99.7607457594103
99.7529314542169
99.6585443053285
99.6562109525491
99.6693256042412
99.6906955285774
99.7276394115224
99.7197616738719
99.6620791934653
99.691748780036
99.6715234029714
99.6033228119453
99.63912157079
99.7336431458014
99.8304485011145
99.8739734454872
99.7508619711454
99.6334450728807
99.6642009095158
99.6398550984192
99.6122604843493
99.6762090744002
99.7336119054374
99.7276510761413
99.7129337712272
99.6957215967302
99.807114633457
99.9659569622053
99.7462541809415
99.6074986962463
99.6658181606512
99.7763597930022
99.6835167946995
99.5842182581629
99.6162244340155
99.6779685311553
99.7961867109954
99.7069187346146
99.5171855943203
99.5529233020523
99.7253804215807
99.7354518618884
99.6113449823777
99.6228295161137
99.6338182995576
99.6927688602078
99.7670219060911
99.7400462436561
99.5732312451985
99.5385321832057
99.6046789411538
99.6724486589265
99.7617865890503
99.7595476716365
99.7243761611268
99.7105940669535
99.8091070200061
99.6465364274606
99.5241179506396
99.7173748842696
99.7345237952693
99.6001935309155
99.4450905376882
99.5382749380889
99.71873930375
99.7947720770754
99.5777660769233
99.3832777279174
99.2717695922029
99.2793639218704
99.3587375267931
99.369569609789
99.3168191930387
99.3840828219073
99.575744830046
99.5419788518264
99.3394664572309
99.3616927052833
99.3386712630169
99.3733753402115
99.4702080614702
99.6576329309779
99.5968932782246
99.2222585280594
99.1315293510195
99.1786675284008
99.2277223226832
99.3878921598907
99.3146132015471
99.2645826867578
99.1772361755053
99.2424600557949
99.3943963992877
99.3818691582798
99.2093708081858
99.2334541291523
99.3484772035548
99.2466460860459
99.3391254801391
99.3976704492842
99.2567635176957
99.2788735267971
99.3211795748472
99.2809818177708
99.3058539294589
99.2807330427087
99.1648169815377
99.1984439286161
99.2315650592939
99.2113702552265
99.2049718418378
99.2568129588073
99.3475899893736
99.3746477791571
99.4794626235848
99.4545267802492
99.1303602001228
99.0571580629163
99.1216820729508
99.1615852227639
99.283171914076
99.3592003822169
99.3811540149976
99.2229942822115
99.1914623387202
99.33204435342
99.2430824966957
99.2766712339976
99.2624811771369
99.1099252932171
99.1463677443914
99.142210929098
98.8440738681212
98.8803970796814
99.1885336069943
99.2181407726205
99.381747133978
99.3377624799024
99.1004132012152
98.8742192520558
98.9226045220213
99.1379390447738
99.216276633674
99.2021928357357
99.187022288509
99.0898102545651
99.089219417551
99.0828208947669
99.0895345452329
99.0184440998189
99.0440802224438
99.1065218654215
99.1969312178949
99.3016150733405
99.1996713829991
99.0733236359815
99.1648080619342
99.0507551928491
98.9643446769686
99.202130778202
99.2114905903786
99.0860247243946
99.0546030211623
99.1570468140106
99.1862546817178
99.0719542157748
98.9949825252855
99.0177559178119
98.9942771149087
99.0777975619038
99.0962447150181
99.0505574323744
99.1221004999514
99.2218057895597
99.1182936281444
99.0259788033353
99.0855614101368
99.1850162198823
99.0466419683499
98.9829579081787
99.0851813897156
99.1745248322814
99.2891498384771
99.1540719432232
98.9996925821826
99.0157413885711
99.0261578152537
99.2172921562824
99.0954616149046
98.8996122403779
99.137508831418
99.2018569821423
99.0327044271443
98.9958559712502
99.0358121033479
99.1219490187596
99.1762749193273
99.1453634099418
99.143205182389
99.1019790671939
98.9939363209935
99.020440598496
99.1236853653756
99.1207745794648
99.1144046135322
99.1159012432637
99.190301272924
99.1877743423212
99.1332657802311
99.1687824973818
99.1994121586074
99.208269940329
99.2210462356746
99.2102720389499
99.1070335668145
99.0792953147733
99.2115315149555
99.2780283164263
99.1916178594316
99.1332279574356
99.0436115386151
99.1162187170189
99.2199802177317
99.1957135916379
99.2554209158454
99.2471879202566
99.1745804549818
99.2103462117504
99.2885544427559
99.334895372918
99.2771312622261
99.2143964765165
99.1760390777482
99.1955871417356
99.2271920123829
99.2159429802703
99.1495674429842
99.149612629232
99.2066335627602
99.2043280571864
99.2655504903838
99.3642908857869
99.2908320021327
99.1844153468894
99.2164860091295
99.2426994044581
99.2277782485959
99.176668942135
99.2183672308512
99.3201948859278
99.3570648195446
99.3141681311875
99.2446792684339
99.1952067088014
99.2266386366905
99.3041838310426
99.3570023194388
99.3279228717942
99.247798088656
99.2700471636132
99.2819666265829
99.1888835450606
99.2025708660637
99.2683518448578
99.2390413086484
99.2487453691267
99.3099105965348
99.2790978050248
99.1599341525217
99.1750299477192
99.3398189172337
99.3662578097726
99.2932214309298
99.2774524779324
99.2762168308145
99.2925607771344
99.2625547646842
99.2117553255342
99.1899502463806
99.1851766645451
99.2801839396495
99.3255130953468
99.2745817299594
99.3045263220674
99.3259561601501
99.2783310199144
99.2646671828758
99.2859410752036
99.260568467959
99.2625784694119
99.3022422372967
99.2898698144274
99.3428143616819
99.4099825317876
99.3705612391597
99.2739364999662
99.2148449554423
99.2607016452921
99.2853361111603
99.2498777414428
99.2878967189293
99.3874043595132
99.4214687352216
99.3954288960474
99.3821319748359
99.375538018276
99.368032408501
99.3590024247325
99.3544682226796
99.3791965792134
99.4106111821686
99.4338872682869
99.4049994288551
99.3907272750299
99.4334120373643
99.4239958667302
99.4105182496653
99.4353054459062
99.4290327134217
99.4164650255294
99.4558876746545
99.4694443805164
99.4050991371736
99.3507419062749
99.300159372098
99.3082165905706
99.4175147567034
99.4761050626854
99.4560704043347
99.4644925497543
99.4691146688925
99.4148861056326
99.3640617577859
99.3618281828352
99.3933676094427
99.4465252487214
99.4686414977242
99.4347607818527
99.4324305379131
99.4291222634177
99.4366841723636
99.4850624004858
99.5105590079863
99.4799817629455
99.4529017817944
99.4988854528012
99.5051741085981
99.4884990057955
99.5040586391879
99.4659734386394
99.426895944491
99.4635433743893
99.5028361543823
99.4769216039282
99.4457939607121
99.4419904639881
99.4644689396137
99.4536750173181
99.4408850358716
99.4720244058379
99.4486073629273
99.3959291076262
99.3773384660641
99.3948366487566
99.4434852821459
99.4534000453552
99.474531073287
99.5111229869288
99.4302237956465
99.3609280879418
99.3926284867667
99.3951271297115
99.4494001417359
99.4934177357671
99.4811697442698
99.5000283444515
99.477730240168
99.4755091608638
99.4598129733141
99.3611137055647
99.3389582111211
99.4179054603529
99.4350110170459
99.4395001227954
99.5007663355311
99.506571344313
99.5267492628491
99.5527936548017
99.5052079375424
99.428855032259
99.4018355021594
99.4436340678444
99.4857523758604
99.5145350831991
99.5745311071855
99.5650828548795
99.4840287300183
99.464669770708
99.4822616296501
99.4916227837285
99.4113170208889
99.4052192590449
99.502595017315
99.4542500315758
99.4761412629285
99.5122993331731
99.5016550090631
99.5954978190249
99.5488558495468
99.4201333090841
99.4378260659418
99.4735714890722
99.4963362919143
99.5085802176041
99.4816273032069
99.4941384151791
99.4861944507024
99.4537999396163
99.4596132003065
99.4464525886247
99.4684438333472
99.5457021738706
99.6020358686569
99.5693939945059
99.581856975786
99.7072572436659
99.7016787493118
99.7047559002575
99.7751533973431
99.6797205794149
99.5028601559359
99.4920109207945
99.7161875311449
99.7970174198381
99.6977681589391
99.6389197468681
99.5825484457936
99.6088664011421
99.6681419818702
99.6845286518573
99.7061755472151
99.6707960919914
99.6166678876081
99.6136982227957
99.6341766845509
99.5484935045335
99.4281802223259
99.5534292407217
99.7215928931694
99.6784737466206
99.4940151769329
99.382450661407
99.5216552431295
99.7252031557739
99.6754158206747
99.4808644640162
99.3683549800919
99.3518386102818
99.3752236054416
99.5472637659009
99.6088196212761
99.5127679808699
99.5306314313004
99.6179499275881
99.5969148834469
99.4280007345222
99.2879510939443
99.1678466933219
99.1270234467265
99.3961256549511
99.7368307883511
99.531992366143
99.4406688003745
99.8400931275972
99.9120082166739
99.6070379605887
99.4593038961169
99.4640144175716
99.2820550902678
99.1978858744702
99.3184346684222
99.5394277906854
99.3907582347464
99.3923433244284
99.4118344040235
99.1635371256014
99.204315817066
99.304015078657
99.2232399133271
99.2282742082623
99.0947170411659
99.1879697081944
99.4954115746354
99.4765761231185
99.4335522807171
99.5676984803582
99.409485866229
99.3776878837895
99.5103535762576
99.5349625622092
99.70046532401
99.7176156398504
99.4106485750431
99.4005995407104
99.5773240709445
99.5355215626381
99.4828385209528
99.6018292491814
99.5721544737311
99.4633381652851
99.4945862266192
99.4197152716668
99.5213541499688
99.7637042427308
99.4282252854587
99.0371373581416
99.3934215625033
99.3826572488547
99.3222614941836
99.6116038774094
99.5570400366863
99.227544423244
99.0898390328615
99.1789265466253
99.3962562824418
99.5391361483565
99.3087706647319
99.2343373203183
99.4741559812752
99.2898706607751
99.0790338689787
98.8726180221669
98.9371357893842
99.2885151554412
99.2293986652724
99.1618026586078
99.1959515444101
99.1048689900143
99.0565106200052
99.1527555303413
99.2229338321248
99.2305489474125
99.1710321230264
99.2345596272644
99.2928138361019
99.3569943222817
99.4613334873292
99.3608984694285
99.2954222591744
99.4266017872153
99.4818052072119
99.4022021320632
99.4351727523059
99.5121358169623
99.4329931483628
99.459689696736
99.5168269823216
99.4397721986372
99.4598842890788
99.523123513841
99.3633275029611
99.2839886955188
99.4179381787651
99.4732588324577
99.3894335507177
99.4570565105338
99.5459912729224
99.4083054372278
99.3983449593833
99.4989208989501
99.5137556720462
99.5052454244264
99.4719358220853
99.4511476757846
99.4871601708909
99.5219609021642
99.4942520153019
99.493371038342
99.4971314632052
99.5310720355036
99.539140299759
99.4697912794942
99.5236878807584
99.5537699768763
99.5364632843917
99.5841022146222
99.5234227853323
99.4575953079638
99.5297284146921
99.5429826098844
99.5100328005305
99.5386744054601
99.453288631566
99.4083298934524
99.4335720103091
99.4862903375961
99.4953530573911
99.3365641090258
99.3043308999596
99.400679660019
99.5550570295654
99.3914376903936
99.2970369885384
99.4326408251695
99.5360771817646
99.521255954844
99.304157590913
99.2134727530938
99.3351107924308
99.4287217756631
99.2324911521921
99.1837489280185
99.1999250891182
99.1414592433753
99.0720658443219
99.1140307740471
99.1928139312485
99.318545324782
99.1450502979044
99.059554391104
99.0597774205694
99.0871544446722
99.176831965162
98.9896429211997
98.9523169523426
99.0188373911407
99.0514212597223
99.0765344085595
99.0117289853674
99.0203822543504
99.0558274237424
99.046659651074
99.1083378437948
99.1685623115656
99.1603231556021
99.1602700626908
99.1952578028319
99.2160755279903
99.2309881966745
99.1988763810508
99.2022443581144
99.296894184383
99.5756544346794
99.5522120040543
99.1854039344951
99.2403045533695
99.3319600669761
99.4676403659951
99.3753145795848
99.2268576827063
99.275479711649
99.3287013570242
99.4013974421418
99.3129703217945
99.200313139184
99.2467763360267
99.4024475497997
99.3058815372369
99.1719391270429
99.3025275032913
99.3353442262654
99.3049520590496
99.2467163185938
99.201005235139
99.2432305728217
99.3087120470658
99.2347084060994
99.1138575097158
99.1454561428297
99.2174314178832
99.2728983156759
99.0671010171491
99.0697403229996
99.0824208917579
99.0569164236728
99.1556697960583
99.1276770127069
99.0658625154699
99.0763003522462
99.0738846959217
99.1441271035327
99.0927185078636
99.081066662252
99.1429112584465
99.1551936095206
99.1693892418801
99.2167496063886
99.2021902194229
99.1583065213538
99.1643075895121
99.2073981733109
99.2575171476022
99.234067708735
99.1778936412434
99.1839070394258
99.2294834771026
99.2173652850199
99.1952374573953
99.2049326208194
99.2110733531183
99.1922843009871
99.1804985457912
99.1474013471643
99.1524049668955
99.1897062744641
99.1587044332458
99.145385682114
99.1535053381206
99.1304915804874
99.1089666455671
99.1265979323028
99.1577707231274
99.1428981218592
99.1182802587178
99.1177431136607
99.0978710677624
99.0848866231565
99.0816387714173
99.0584034185495
98.9969364365718
98.9802617858613
99.0199861499516
98.9979370943389
98.9322347988368
98.8920019830906
98.8414660964592
98.7875475665882
98.7543690486959
98.6950587288388
98.6535571246855
98.6236290462627
98.5148241771025
98.3914604311339
98.2566195392431
98.0676392885999
97.8531561006835
97.6279001694089
97.3733026931717
97.1373092871681
96.9613942395864
96.8177086194433
96.655495065266
96.4875802576656
96.3472865463086
96.2227509558259
96.0411617760475
95.7684605067161
95.4271847198275
95.0788313083363
94.8592342881804
94.8380732591611
94.8139799647542
94.6288750685152
94.3174960788162
93.9770111724637
93.6148976533592
93.2766505481781
92.9755571078375
92.5813859396105
92.1392655602395
91.6803290280603
91.1480772262743
90.6720236475931
90.3251175469096
89.9806757231756
89.5558053955606
89.1820687486574
88.843929587898
88.4617552704588
88.1716156646069
88.0143699080646
87.8796070634257
87.8130438901509
87.8697888240569
87.9157350294389
87.8041716872441
87.5390996669992
87.2401939677949
86.9708495977541
86.7694827303994
86.6265926600593
86.4609841649093
86.306874981715
86.2421711663287
86.3668696772972
86.8175620390756
87.4773808468796
88.001686607854
88.2340530371641
88.2254158049959
88.1854132304889
88.3323881939237
88.7568865747332
89.4320680810514
90.2482330255389
91.0368673328439
91.7119996899074
92.3489507077007
92.9495693876955
93.4489194394005
93.8592408950847
94.2085491657468
94.5240376753545
94.7747003711656
94.9599248460801
95.1012229971971
95.1903672494312
95.2333855749821
95.252289010289
95.2499387672357
95.2930668346584
95.3754298420264
95.4126325143504
95.3311787356356
95.1182200305324
94.8733228688764
94.7883248288692
95.0482000315668
95.4975856016291
95.8711306133855
96.1335855375989
96.3645257378982
96.621330097192
96.7991390806852
96.8596121387365
96.8555196206002
96.8567234793571
96.9657749650947
97.1318778280363
97.2819886684262
97.4132195783305
97.5193013251199
97.5596014369494
97.5629200483068
97.6509748957558
97.7846171308944
97.8300740117738
97.8445686318215
97.9375041725351
97.9702453691363
97.9058842923336
97.9054256388619
97.9229503084765
97.6843727075975
97.0063579869587
95.9828081672003
94.9462326257423
94.4438377976616
94.6557746369983
95.0486380820849
95.0744741876891
94.5510435040659
94.1557241702099
94.4876907313201
95.0846834554351
95.5148568868006
95.8693742779558
96.1657286270375
96.2427813100863
96.3125658056614
96.5331328729467
96.6852714267764
96.7747305600764
96.7510333171601
96.5197707649046
96.4157208147162
96.6471865531602
96.9504335444628
97.1515654515612
97.0189494114401
96.7602953280473
96.570137601789
96.5907352079697
96.7429973390688
96.3515365652886
95.7219405686317
95.5449613804178
95.8956515782938
96.468156278542
96.6883024356841
96.6810714520421
96.5041047294797
95.9975702258639
96.9376787879386
98.3355598918165
97.9375476570881
96.7226548995416
96.0547539986591
