900
4001.38730172967
648.873616496703
1
128
8
98.0573708063136
98.109494608671
98.1645388885329
98.0634082278136
98.0486818626369
98.0604750164908
98.0860508210683
98.1351977211143
98.1114075025741
98.2083169991837
98.2682905523919
98.1398321487826
98.0694576126428
98.1330999633536
98.1790680576003
98.1958572005749
98.1168884159173
98.1748034736837
98.2145748801273
98.1150295324223
98.1280096091814
98.2258795701477
98.1150269071945
97.9373207928851
98.0213167078211
98.4311538915602
98.5602030682065
98.0529460218245
97.8774652227564
97.9772044437257
98.0483447658361
98.1782996144444
98.1588555697348
98.0625963723964
98.2046264309148
98.1778293448862
98.0021920373672
97.8409961563788
98.1900709923716
98.6300376735262
97.9489777211141
97.7000857051915
98.1016116674552
98.4061127362203
98.0978999238056
97.7241139758585
97.7876324691827
98.1995488513495
98.4090110088069
98.0491941297651
97.7335284569165
97.8874164897178
98.2058961930633
98.1925890898938
97.9640046886449
97.8047793178484
97.7984515827856
97.9720653963658
98.1422667327634
98.1036040486382
97.9167528292348
98.0358732536159
98.1979958928468
98.1279467765791
98.0598062744727
98.1399698076506
98.5284322297785
98.6315512866621
98.3022602594211
97.7986104228862
97.8390427708208
98.0434288706763
97.8366297592966
97.7736359651148
97.7092428867903
97.5020493909471
97.7061795175013
98.0521364447072
97.617200290871
97.3102459517172
97.0712320288909
96.7272655337146
96.9295966348169
97.1443949660789
96.7380051599654
96.7855049889274
97.3711988341663
97.6903648785972
97.2876158906623
96.7855725989329
96.6807883645526
96.8554592197978
96.9628001704298
97.3437898248642
97.5225095562889
97.0149387663747
96.7648142918553
96.8166986030121
97.1367119315663
97.3671951613641
96.7637280855704
96.37033349379
96.4852871391545
96.8748160938204
97.1797180167205
97.0526440746128
96.8110221417659
96.8887759471991
97.0952834023422
97.1801573738859
97.160644039399
96.946378223711
96.7750092525998
96.8717256975243
96.9127794465426
96.9813909014671
96.9788325333532
96.6481730623592
96.5994879980183
96.8324976730965
96.9600751642314
97.0708797497353
96.9556057109801
96.5225315665558
96.4926915948159
96.7233118660582
96.6914412116922
96.7091076341495
96.6903958472379
96.4857383066917
96.4214080345185
96.4868327803763
96.4869083638572
96.5656414022959
96.4850902867008
96.351654830727
96.3847626986508
96.6217805027599
96.4585041718189
96.2950719705707
96.5828134699509
96.5332029503903
96.2434221226155
96.3392424633623
96.4321204588824
96.409334286242
96.4623119129979
96.3484309871875
96.2805422680243
96.3772057669705
96.2051133560385
96.035587917924
96.1376046604391
96.25081944409
96.2545982856219
96.1962318919814
96.2723964985249
96.169877859076
96.1212697160809
96.3124320692704
96.1952196998718
96.1232668918763
96.1785281774827
96.1581757020536
96.2079089595861
96.2373142299658
96.0646180270821
95.9425265773019
96.0456421303843
96.0520723525133
96.0564949213584
96.3449303508234
96.0619738248829
95.555002483009
95.8441061689617
96.2691187910787
96.1514163846309
95.9335664120491
96.0060531014728
96.0748906273271
96.1589227322574
96.1776006223716
96.0424230935081
95.97400887181
96.0332195243262
96.0667987729218
96.0433920088333
95.9623756664933
95.9299983872789
96.0587632100801
96.0792437478037
96.0703286479578
96.1205478592743
96.0961497203761
95.9848857913357
95.9800145000019
95.9473414911614
95.9472147021854
96.0769077248349
95.9403903260789
95.8603348443975
95.9217533682091
96.141880850537
96.1107697017291
95.7862859211016
95.8798388156199
96.0506333899078
96.0279263513202
96.0925550371579
96.1379405636855
95.994511224576
95.9924538318271
96.0195449004999
96.0409811332456
96.0269740780641
96.0016315713952
96.0772993696182
96.0902780685689
96.1535003115778
96.2712430653477
96.1810809902924
95.9941095756942
96.0272683624614
96.1852078387112
96.2141934042086
96.075825849031
96.1508798585731
96.2432550262368
96.2253399881293
96.1819875869212
96.1814306218835
96.2697981862329
96.4244836379909
96.4207827669872
96.3135811617178
96.2540456312997
96.3202099592779
96.4043778587929
96.3660328645282
96.3576858209816
96.3565512444084
96.370657443009
96.3210123136127
96.2167294084899
96.305764111876
96.3126009446553
96.2247081500939
96.2541109890639
96.3287950269651
96.4781547071922
96.4605680471005
96.3293687590368
96.3321065711343
96.3591344245867
96.380138452624
96.3919720435986
96.4049507103424
96.4273838942902
96.4524259094057
96.4922166354063
96.4669835373072
96.4235186641076
96.4376201328781
96.4932704463435
96.6031450834933
96.6089755499622
96.4715734602052
96.4968359507813
96.6056678636747
96.5742584582561
96.5317215186861
96.4783378999305
96.4517822606865
96.5529441420151
96.5425496581697
96.5004244690456
96.5918256501464
96.6165272581907
96.5067527550182
96.4553244257751
96.4497184359403
96.4623223340836
96.4623899483096
96.380812412216
96.4248927010816
96.5056819546035
96.468092562801
96.5147490384809
96.5048030022403
96.3545672107754
96.3638785953262
96.3581144041291
96.2822334740692
96.4120975959932
96.551095410159
96.5223474184263
96.5857319416947
96.7000063328655
96.674902812417
96.5988329730632
96.5819467539544
96.5517456325557
96.5524647331642
96.5902133402458
96.5886420838966
96.5939823781948
96.6291450575262
96.661372524714
96.6594503919152
96.6959856923067
96.7352699395827
96.6871095813647
96.6877123251
96.8013433334553
96.8740105898551
96.8600970769393
96.8951161860126
96.9497490267264
96.9141623498964
96.8954625566782
96.9464993901254
96.9460717936171
96.9095278902516
96.947929827111
97.0064329809754
97.0249914479143
96.9848804063747
96.9554945287935
97.0082184920068
97.0197298899381
96.9641031895651
96.9518724266942
96.9791486432389
96.9754868937828
96.9811052612995
97.0391542374822
97.0554472104919
97.0315768702212
96.9668852168802
96.9097320813456
96.9365390325936
96.9624660023725
96.9893928996517
97.0220758953386
96.9932132777956
96.94618773135
96.9626358737928
97.0071242860952
97.0256844059115
97.0233455363905
97.0475151926387
97.0601083499819
97.0325848343958
97.0514341309995
97.083522252841
97.0818498698387
97.1016610166301
97.0927784337559
97.0135772331157
97.0222116044415
97.1313750232364
97.1564580138057
97.1238974602693
97.1070966223822
97.0852605464289
97.0980006988338
97.1174956365157
97.1083101390982
97.0851849074448
97.0706806383125
97.120753870367
97.1094214318535
97.0094388487782
96.9710602526573
96.9832019424939
97.0086320213928
97.0447762972591
97.0558024090389
96.9994845388976
96.9747781116647
96.9970189444416
96.9902935734443
97.0464013746439
97.0036355410345
96.8643309514852
96.9053783498542
96.9646714684546
96.955563893322
96.9851152092075
96.9843734914846
96.9869031922591
96.9972141943698
96.9663369001957
96.9722979477999
96.9517581623658
96.9321188685569
96.8914441319638
96.8284612448583
96.9169249630253
97.0594775053181
97.0370008729274
96.9286834817317
96.9305188535071
97.0013990574665
97.0481542627564
97.0882422742754
96.9482953572053
96.8324803869142
96.9699042499793
97.0155510002133
96.9298890842458
96.863422406213
96.8961806973583
97.1218021388927
97.1007074717637
96.8438095249521
96.83469647539
96.9311393999929
96.9661326279057
97.051834480388
97.0211459195718
96.9558255451119
96.9089371455642
96.930347079805
97.0214890985855
97.0056337961166
97.0317585747739
97.1357857585735
97.0746507567005
96.971315723044
96.9981880641763
97.0305343104345
97.025029669023
97.0979056285268
97.1961130036318
97.3446361856604
97.4203089166504
97.427421248506
97.4676066587489
97.4177990428804
97.1903249043351
96.9207928688136
96.7626923938594
96.9640625774999
97.3236432174332
97.3773965788281
97.2296558311818
97.1488210310012
97.1210494771274
97.1020654781172
97.0659044474306
97.0772914730507
97.141953049134
97.145734464387
97.0621986276074
97.039089460221
97.0856625956404
97.0622310108151
97.0270793211484
97.0075779981309
97.0767670044591
97.1148152099084
96.9304675438122
96.7439052025679
96.7997289064068
96.8492906289949
96.8174116521869
96.7838323086204
96.6155586788982
96.5808830342329
96.7245584316178
96.5615870343813
96.2948899922414
96.3565216064791
96.4967200038898
96.4925977236863
96.3644321012231
96.2811114037768
96.1350698859282
96.0497223272396
95.9728086889548
96.012795147522
96.0322279500075
95.9752330523516
95.8251736821435
95.7864246200984
95.8726536141413
95.6993837315328
95.5084618818629
95.4501688700463
95.4271228356701
95.538684546964
95.3296136608424
95.1775366391568
95.0183444654712
94.7965638144654
94.8552818922463
95.1233691139542
95.6023749764568
95.9022768540482
95.9285396093121
95.9740569371635
96.1103093329526
96.3219970585031
96.51339108062
96.5480891478914
96.583752984898
96.702620597799
96.7518835420165
96.6562216209002
96.5168036698458
96.5607037573424
96.6534145239765
96.712545865262
96.7744961698093
96.8600187106501
96.6057374562906
96.4013003315677
96.4788430678294
96.5168278509132
96.3513376889366
96.1634544151449
96.365236164006
96.534846747987
96.1337240560176
95.7253276375149
95.3961342186814
95.2775858817351
95.1015324084665
94.8148802679393
94.6762631338317
94.8319140743769
95.143737001097
95.0033397796433
95.0084531963951
95.0563540062893
95.0664364523827
95.21656968349
95.477123374032
95.6404845450074
95.3411890699762
95.5802952074758
95.4971848483478
94.9838636497183
95.169982209315
95.2436080446549
94.9564466632399
94.9352106912351
95.1610663168705
95.4941351417871
95.8878148557106
96.1317050109709
96.0836477549618
96.019296559699
96.0096770224242
96.1119537421122
96.2892979884205
96.4574319150014
96.6560505558612
96.6374699577699
96.576687761816
96.6754502024722
96.6623350231619
96.6451765395422
96.6480781575444
96.7036479425338
96.7178158536001
96.6709926173311
96.7565454114552
96.8308538608865
96.8640919826038
96.9843156706413
96.870991040403
96.7348296819375
96.8085195124548
96.9808330315299
97.0290115372099
97.0984530755817
97.1581187473631
96.9713273642015
97.0694294490346
97.2695551571496
97.2935401471199
97.1468128767517
97.0498126186459
97.0937982964798
97.1793452762531
97.2200568866981
97.1272556030737
97.2461916914572
97.2827098063063
97.2595062167542
97.3286265432245
97.1240143164928
97.1899296337506
97.2647247281783
97.2492289517336
97.4887683727268
97.2763588101815
97.0250983713857
97.26934857363
97.3142249145232
97.2516694021614
97.4252203587142
97.1391605737816
96.9167802536868
97.0119390828876
97.2465890655383
97.0657194899617
96.4930326449151
96.6999297861381
97.1945553712245
97.5544562112786
96.8097829568776
96.5402347974888
97.0085467254851
97.3689401044436
97.3644319569479
96.5365098687567
96.3192358179361
96.9163040493419
97.2597789077077
96.3709792705781
96.3778674764039
96.6005061248303
96.3584234990401
96.1650123151112
96.1922054190626
96.4147327525983
97.1388168831878
96.5727629469095
95.9593248478687
95.8779018119045
96.1355642392612
96.5620441976391
95.8914818938355
95.9644878113224
96.2196394648456
96.1296724759723
96.2035007960663
95.9451514159884
95.9087733296086
96.0991857281225
96.1322285999183
96.232890238791
96.3058127130627
96.3412632706437
96.3639049553104
96.4776629767495
96.6892283555424
96.8280592395636
96.5834932292782
96.6027453618106
96.6918493978119
97.4212288736958
97.3632282667878
96.2497469015146
96.4914944967338
96.9803827060427
97.5626542048947
96.9455338365649
96.3386608974913
96.6317229506694
96.8967169397401
97.1673829460852
96.948560125727
96.4586941277307
96.5690240349319
97.243695649714
96.8477786891823
96.3010902019282
96.8544293539417
96.8848487612868
96.902046554826
96.7668769312449
96.5888162997369
96.8696399776697
97.1879765585703
96.9084603268963
96.4439010429175
96.5875900683815
96.8037002666931
96.8947675334676
96.1039799741887
96.2171853711974
96.3433881912873
96.3415039467201
96.6635990088439
96.4081834312026
96.1231119697935
96.2702115945188
96.4926050414393
96.6579707043579
96.1923791556576
96.107936656711
96.3925069700671
96.4337222356715
96.5000128081692
96.6250464187351
96.3604114449223
96.304396168755
96.4329620626736
96.3274258964858
96.4033402161986
96.5093250714263
96.4033253517433
96.4031195065297
96.5157766727138
96.3635819093096
96.2807156405505
96.3632460715819
96.3357258136497
96.3333634550316
96.3829307565828
96.2505494834001
96.1036772384357
96.1668215468618
96.1857764502029
96.2195322837634
96.1744693153954
96.0577358818202
96.0444193830693
96.063188205686
96.0641873940399
96.0472865059821
96.0295391928815
96.0164278169521
95.9644880920181
95.8826035241642
95.8423854509286
95.8437245047153
95.8239945025213
95.7893696125729
95.7475021418768
95.6967590157385
95.6275506544645
95.5154907262495
95.4137789338743
95.3242583000792
95.2325094971468
95.1522568111295
95.0571837217504
94.9666429861432
94.8307802520451
94.6184080349517
94.3597747687779
94.0449530962107
93.6647611387685
93.2483847707951
92.8334072973765
92.4447582020753
92.0492046411802
91.6347538974
91.254149882755
90.881374726615
90.4722830606665
90.0138001656115
89.4557689825808
88.7120739284348
87.7697203646977
86.8437937986125
86.3987515491845
86.6430349276408
86.896565274322
86.5284758107919
85.8467451867299
85.2059837390658
84.6196645146535
84.0916966373001
83.5817880928728
83.031268171818
82.3926731879683
81.6096979990715
80.6883786068131
79.8960392167415
79.4236444565796
78.9933073550681
78.3372926873024
77.6420194657537
77.0008897081865
76.3915832965009
75.9081960288167
75.4680463094113
75.0552175710593
74.7587509536596
74.4498261378073
73.920998437223
73.1814679038244
72.321864560556
71.4443095299211
70.6462488864389
69.8967722998808
69.2520957891648
68.6505623372196
67.9470616046875
67.281418007949
66.9670223810177
67.2923351958873
68.1234686285944
68.8720254695512
69.1096774460547
68.8105868104326
68.3254473118304
68.1957700170711
68.7340037047758
69.69883219001
70.7532026299817
71.7720393908702
72.7057923883738
73.5874419814137
74.3720351552876
75.066278527924
75.771851982174
76.4019601227523
76.951572614716
77.455725871832
77.8717297261867
78.2370182418339
78.5664684227782
78.7639057255843
78.7823124786106
78.7718812886672
78.9131128179702
79.2057540633314
79.4514071835773
79.4640421488535
79.2423930012038
78.8786465396971
78.7472014318612
79.2353860579374
80.1988873796732
81.2564382645103
82.2331655694425
83.0014051311155
83.6341840137357
84.2665032577896
84.7809038933501
85.219686466515
85.6782643842899
86.0603183788752
86.497361123566
87.108392109839
87.6730861639417
88.1149677662069
88.5608313665571
88.9748908399731
89.3418242169665
89.7698656893215
90.1614265957468
90.4773472519679
90.8267314739736
91.0421196755448
91.1146504226062
91.1353776833041
90.9631528890533
90.1341661895851
88.1981750590588
85.3185716654947
82.2369883221179
80.1594405511532
79.7535265272633
80.2025666638908
80.0901352284689
78.9535982441997
77.5350106771182
77.0505400008937
77.6634591039635
78.5851901560306
79.360818822307
80.0849339593158
80.7662725636421
81.3372425364074
81.9334560756225
82.521374947509
83.1028045799436
83.6759349670509
84.0194706196304
84.2713370205587
84.7004038406644
85.1037603169459
85.4216167855875
85.8628570969617
86.1353813212536
85.8915422864774
85.3835958603961
84.3699689436487
82.4598627600659
80.9363205128833
81.348079133165
82.9802930013569
83.8536539111638
84.3496531568381
84.974948376943
85.5261540499709
86.1253719598202
86.219566933458
86.6593713955844
87.1681355312931
86.3661624239301
87.1680369705358
