900
4001.38730172967
648.873616496703
1
128
8
99.0263101872308
98.9692897510701
98.9557416977318
99.036042772478
99.0528419992832
99.0633334959068
99.1416343396632
99.1007174319381
98.9876393398258
98.9447990526848
99.0019926273059
99.0366007054853
99.0415623456538
99.0650149118028
99.0217678555118
98.9669480168293
98.9815543987635
99.0456100748766
99.1441335483769
99.0976651788419
98.935649778036
98.87453950245
98.9543777457892
99.0629291041514
99.1216903167659
99.0720533748331
98.9584964492666
99.0219989395111
99.0621759262044
98.9477566960653
98.9548568957013
99.0094489790635
98.9936110450458
99.0090705933349
99.0378658124339
99.0684887053626
99.0582397802599
99.1381968463245
99.0577540770413
98.8974419133778
98.9568716897581
99.0359623287361
99.0324561370248
99.0569368823987
99.0844712626161
99.1011680719625
99.1719074591673
99.1321930019707
98.9879754258205
99.0083055699451
99.1385326916895
99.0665554823268
98.9769958646311
99.0833719743338
99.1233644099849
99.0871626280805
99.0527014631691
99.0597839794982
99.0707455842889
99.0987071289998
99.1011815681938
99.0278967341116
99.0227715970572
99.0944483884798
98.991713091006
98.9141137684691
98.958783738729
99.0679134163309
99.1224284199607
99.1285274226142
99.1325548207828
99.0424251427054
98.9763054738353
99.0010226596753
99.0443759703912
98.9485020761125
98.8236493429782
98.6975615660768
98.5729753305379
98.3041540924242
97.7406119850396
97.0939519451077
96.6961843254795
96.7907679827527
97.1070378462778
97.3413453025262
97.5369784927991
97.5989038364161
97.5468278516202
97.6797948075332
97.7222379196008
97.5185486558312
97.5131850084194
97.4194573234027
97.1900514783086
97.4833785846342
97.701374099947
97.6494726653191
97.4753124356281
97.4943456667651
97.3592326244008
96.9001788521734
96.6274602020523
96.9316312901702
97.4439878108314
97.8320596460728
98.0172034123134
98.0581762410607
98.0087486783578
98.099433151614
98.1008429708372
98.1345221181003
98.2061480772654
98.0653243917434
98.2073662065394
98.4193183819444
98.2266686082745
98.3786931844862
98.5611260794271
98.3515214971862
98.2721718860606
98.4475705346082
98.5245849942474
98.4636796686343
98.4931210196697
98.5877629329167
98.6052643579877
98.4869764993806
98.4056077805275
98.4563633217547
98.522874340087
98.4839401943846
98.4352173720465
98.5192264326131
98.421707632549
98.3102344538973
98.3901255551857
98.4880465418337
98.6190381568764
98.5851286364684
98.5078309199745
98.5807646587711
98.7194257166862
98.6568125661325
98.5375863344475
98.5032180744729
98.4113695826581
98.6404347599461
98.8296365405773
98.6551632327911
98.4145589779004
98.4177257291069
98.3455733930939
98.3248268384852
98.4585571984484
98.6339784887407
98.6556198621304
98.3220258641466
98.2688253798936
98.4808400504911
98.4631788945585
98.4249957935476
98.4862681747634
98.4893042802941
98.4740987000562
98.3205953000929
98.0694416118838
98.2751630657256
98.4202265119265
98.3044034733813
98.2651808882669
98.4074451909772
98.6728586609541
98.7258089376455
98.4119943147688
98.2129065313299
98.3391574805043
98.3576606102697
98.3118229323858
98.3276993358677
98.2203126429498
98.2491241892621
98.404062059221
98.5634359609862
98.4109607805617
98.3500624303832
98.4549835960832
98.4535844459181
98.4135535549565
98.3986438212436
98.4394689378546
98.5970695581565
98.5447674667984
98.3264674920922
98.2170032523849
98.2666317179274
98.3902708825814
98.4701622295187
98.4869476756649
98.546941484081
98.504753223033
98.3627859162817
98.4842320804469
98.5411671097841
98.3129927463256
98.2860440390922
98.4864375512057
98.4519177805136
98.2486499926013
98.2812816652932
98.4920348709194
98.5116460721905
98.4454095789641
98.4096694324659
98.3735957498865
98.2925146872043
98.4385738833341
98.5958535892836
98.4900736031546
98.3468743341713
98.3627618308994
98.4367769770284
98.4793309972693
98.4112804087665
98.3588142946029
98.4231389463028
98.5064046448373
98.5105535813679
98.4250213967489
98.4815688444888
98.412899904286
98.4538808935397
98.6867366534217
98.6745713590077
98.531550756358
98.496516495026
98.527356081781
98.4908079078073
98.3506239975777
98.4757125400033
98.5863608760175
98.4335847092411
98.436276401005
98.518495950708
98.4581003207013
98.4791598980859
98.5500622008165
98.5204378263138
98.4419428300764
98.5376942704666
98.6983905942238
98.6473241983008
98.5539728075864
98.5874907240098
98.6324812616782
98.6811727028885
98.6396371293892
98.5495727267113
98.5365767147529
98.5925671282937
98.5790592247371
98.5603265191521
98.6287377580989
98.6876166497138
98.6740221127903
98.7250013959571
98.7564874824518
98.6972219139003
98.6355946073687
98.5995211967842
98.6506705928726
98.6450098821846
98.5862116840659
98.6751388806848
98.7351804876249
98.7023502389213
98.6340274655948
98.7183316370515
98.8334442791285
98.7573431544328
98.6172501686805
98.6253212257531
98.7040002072607
98.7166478544426
98.6659250741763
98.6725493728214
98.7238140040233
98.7095955101638
98.708269860827
98.7253590256129
98.761323111479
98.7818080554105
98.7038152662176
98.7081222064387
98.7236637800014
98.7261369728001
98.7536053308709
98.7260527089589
98.6555885545185
98.6675632278302
98.7361619758624
98.7517992086772
98.7750613789368
98.7721108553593
98.7607596899851
98.795096614956
98.7126461708223
98.6899736732032
98.7963123021296
98.7931613820993
98.6956254887846
98.7114595510472
98.830421580956
98.8247775559659
98.7485422964126
98.79830270525
98.8510226995793
98.8059153744526
98.7882406113404
98.7951265216118
98.7640568047897
98.7554259826936
98.791327305736
98.8327996374943
98.8260139449796
98.8379049579574
98.857329733977
98.848241127145
98.8489666322863
98.8276747569779
98.8071066948473
98.832497975461
98.8463157936234
98.8499653026652
98.8611679475111
98.8291150415446
98.7920566270308
98.78652916101
98.8270702932107
98.8624476397423
98.8709598840686
98.8717150222931
98.8549904329912
98.8837799303328
98.8925070226125
98.8851575412409
98.917715040999
98.9010885128863
98.8733371259401
98.8781646271652
98.8651402612276
98.8399156063746
98.8163908862362
98.8389708943691
98.9040570471576
98.9090300304329
98.9202991743234
98.9441537378028
98.9134716979958
98.8989532477366
98.8619383243253
98.8353949531187
98.8765102467342
98.8662589339357
98.8195849544668
98.8781007880376
98.9298269491895
98.8908496093366
98.8733201114137
98.8942229156578
98.8885003434833
98.8656212887419
98.8888510364098
98.9266537695396
98.9538303843776
98.9216397130982
98.8951263417197
98.9872778495237
99.0511787955847
98.9679404345474
98.9375396142202
99.0361698383943
99.0906090675206
99.0433850211922
98.9405123128701
98.980317893574
99.07341061692
99.0821297700942
99.0433663599404
98.9674961809983
99.0311293693453
99.0936242353579
99.1067896241304
99.1470701308342
99.1006022217591
98.9782156373054
98.9522417180312
99.0180994401347
99.0060694397832
99.0212773938678
99.1213115419619
99.1855458639628
99.1728058099867
99.1627568148843
99.1589605866266
99.0905998115988
99.0655634168543
99.1015774078646
99.1686461257827
99.113500971626
98.9874277713511
99.0031041424858
99.011756896331
98.974357370194
99.058380287974
99.1217541488274
99.1328293711905
99.1394115764572
99.1258451347039
99.0721262983285
99.0860725321359
99.1038014510001
99.1400931401007
99.1733337318757
99.1261003671017
99.1108390349719
99.1291700201799
99.203799713941
99.2139590197085
99.0983902266152
99.0810168228572
99.1185101047092
99.1648003093124
99.1783577953119
99.0913188371981
98.9654285091729
98.9230695803209
98.9933278054862
99.0320427775767
98.9630850266434
98.9033515365114
98.8987984615697
99.0042572440513
99.067704112485
98.9829541703745
98.8884974834056
98.9071626894906
98.9288992877832
98.9376237772433
98.9217509539907
98.9137928758092
98.9308885466989
98.955845135148
99.0571174252049
99.087091123209
99.0278847308564
99.1018357849552
99.1842594658516
99.114589657032
99.0363008147363
99.0591257900496
99.0852126153481
99.2155104782404
99.3497670138762
99.3596626166378
99.3156936018874
99.3138790007081
99.3786923191083
99.4796156806431
99.5828699776254
99.6246798504843
99.5180045405526
99.5254214506454
99.6204638505812
99.6224917971389
99.5589728209974
99.6611309958465
99.5030848635686
99.423819283862
99.5666517100472
99.615419663375
99.6546204714538
99.7139799029897
99.8071740247358
99.6003812675388
99.2874625298722
99.7062869260589
100.147937861666
100.094850912097
99.7973609153903
99.9750210179337
100.069191743453
99.9388573537162
100.318018816588
100.432800986421
100.035392700429
99.9767951536988
100.054025515016
99.8808949269584
99.8731040527351
99.8481369098629
99.7043630585262
99.6144444194653
99.7703158323361
99.7494566982388
99.5719663510484
99.5386023941437
99.5138984889862
99.4408092265282
99.4578415690167
99.5149598176674
99.6559227003904
99.7816845548406
99.7429804200844
99.6383358320278
99.6372843719873
99.5958997098241
99.5332595224273
99.7008106494454
100.022854963013
100.110710323711
99.889900719372
99.6665300695406
99.6491616007043
100.003811613348
100.336006738987
100.144567895487
99.8988886011251
99.9526309490804
100.137415319033
100.42894314623
100.413634253036
100.152782874586
100.149283140222
99.8143467544274
99.5321542192899
99.8155548942615
100.057800867668
99.947451978585
99.7220621739185
99.592109268354
99.7919046317687
100.294214276184
100.263427741237
100.148354964571
99.9334493435123
99.6509750464237
99.7576833878252
99.9459206592699
99.7791870678782
99.6129311180901
99.711389085552
99.7327800837534
99.4545801826686
99.2774106442781
99.4142905729559
99.3033605095738
99.212194506611
99.2207763707161
99.2499495547911
99.4427619134407
99.4333988708083
99.2664494433895
99.1423356186511
99.0683080272838
99.0976602785346
99.0796832731548
99.0389416136027
99.0855070343241
99.0902939016194
99.0969143380385
99.114134883291
99.0532719331616
99.04711812383
99.045394952131
99.0728687987397
99.0956197043472
99.1201604213661
99.2240338074496
99.2026319539332
99.0900058729573
99.0990279941161
99.1818315467754
99.1707743853813
99.1221153492655
99.0761152442373
99.0442931771462
99.116582144578
99.1871379067315
99.0955097881527
99.0089459362086
99.0596477380915
99.0698544539943
99.0553387960559
99.0529668072019
99.0716928252769
99.0715609488753
99.0085943891526
98.9987796401635
99.0791109883024
99.0573052782751
99.0434273733007
99.0487749837149
99.0446829573316
99.1426811008514
99.1450310572798
99.0738181670549
99.0361789529112
98.996626040774
99.0339396940114
99.0196995927912
98.9384966957574
98.9426921650384
99.0489159828594
99.0176679308029
98.9391750403615
98.8397514743194
98.7915196424072
98.91279181642
98.9307136677108
98.8106180440557
98.7189013950947
98.8078020616255
98.8206110606009
98.802131401601
98.7765721392441
98.7154522272166
98.7151944372791
98.7047674433959
98.5972951422809
98.6083079488864
98.6600297992133
98.6208820418214
98.5351139318115
98.4728906816212
98.6055655250475
98.5861596738773
98.5134659432058
98.5188413955646
98.5542666927972
98.6245158455241
98.6110797364848
98.6313664553457
98.675330749521
98.6452621619979
98.639911874205
98.7604611609924
98.8521985235767
98.772802721676
98.7249503003127
98.775535224958
98.8299602125545
98.7926828285212
98.8381299019812
98.8345508919311
98.8814768250243
99.0026815593431
98.9489241134597
98.9105761144495
98.8851273933686
98.980823179359
99.0143490375321
98.9442402686738
98.8892835090726
98.8756997824363
98.9462332686187
99.0145489045019
99.0294824975463
98.9164231913855
98.9150756757408
99.0008445862049
98.9925565061247
99.0263753580687
99.014486835979
99.0555941377955
99.0933289263986
99.0220520532364
98.9576320266855
99.0326329354969
99.0629044534075
99.0303783347713
99.0085345161179
98.9979880995832
99.0561270460254
99.0393710595069
99.0388324550151
99.0539519352835
99.0162133769218
99.0602794801843
99.0400165023613
98.9984659834234
99.0206412873363
99.0183070459401
99.0643149723878
99.0828980521809
99.0382900461357
99.045402199368
99.0491508462706
99.0348714993352
99.0656951317405
99.0717067114418
99.071123642778
99.1043947504085
99.0950914519663
99.0637447491311
99.0691133301202
99.1321916541384
99.1606648031878
99.1369608404833
99.1308012315225
99.1568249128002
99.1640573029495
99.1255826654793
99.1260477653426
99.1717319441726
99.1765438119751
99.176716714269
99.1859629716639
99.1495014579326
99.1108096947032
99.10539523392
99.1132154281714
99.1246100552802
99.1371654093183
99.1190466667454
99.08728274218
99.0484024242883
98.9684395478753
98.944791019198
98.9879516132718
98.9613619541978
98.8767440579904
98.8595663519172
98.8420832290683
98.7782987195754
98.7701218467097
98.7571564234471
98.6565427608997
98.5562250190781
98.5209598456006
98.477170405876
98.3944339616376
98.3043741344605
98.2227163081491
98.1140997551034
97.9355289249906
97.731039274208
97.4598673361781
97.1203030414268
96.7708863922314
96.4475544066785
96.152548087851
95.8373764987773
95.4918764779071
95.1459852293027
94.7848628230266
94.3237296689591
93.7433316938472
93.0474086664231
92.2291231626486
91.4210971604732
91.0540394926718
91.2534006711697
91.3309340443379
90.8774448695705
90.1913957098842
89.5357231207146
88.9657643353947
88.462101986046
87.9506170673976
87.3578961004312
86.6368637472511
85.7115263783394
84.6027395054608
83.7432807297134
83.5109235636633
83.4155334162377
82.9704125272517
82.3619990206244
81.8307244281439
81.4486024752163
81.1431521557015
80.8684331761591
80.5923323309585
80.2829700115693
79.879375938563
79.2104904565876
78.1994676753106
76.9561632418827
75.6152623636197
74.281996619909
72.9822077799611
71.6797557712127
70.3878437932346
69.1113623553867
67.9206765454893
67.1737231612356
67.4094933011714
68.5445321699013
69.5489603868521
69.6594236578605
68.9948663331161
68.1100510556468
67.8431746584876
68.6153980015523
69.9914815124445
71.519367653809
72.9466563617575
74.1803873389028
75.2811783374844
76.2636439547047
77.1395685974126
77.9085573728472
78.5932857265223
79.2094564243012
79.7354789449102
80.1398430297337
80.4349636338178
80.5510974150644
80.3823203264849
80.0820402848493
79.8141338498458
79.7727727017616
79.9646099462174
79.9996238903875
79.6719167589809
79.0509487475645
78.1874126274846
77.550239338418
77.9734968388119
79.3503896058808
80.8671065072037
82.1143709305255
83.0708150036757
83.8546207039714
84.5476570075972
85.1319397735182
85.6601299794425
86.1534075425127
86.7059648053868
87.3855934639051
88.0545554397687
88.6080737990947
89.1121641721906
89.6651690644182
90.2056078965994
90.7675503489097
91.4364396647009
91.9392679365349
92.2177581920347
92.5467830796076
92.9053243759964
93.1279855149791
93.2271450893268
93.2116826842473
92.8030016018696
91.522031328668
89.1799237160708
86.4638567661288
84.6777824287206
84.3239629201694
84.5548467486867
84.4478000309278
83.6643629520044
82.5834175859199
82.1547960031398
82.5133468597297
82.9263361972791
83.24444057262
83.7417994165675
84.1189507022882
84.1675651710975
84.4394987596397
85.0092517225452
85.5820238387786
86.2646051567137
86.725679689321
86.915589117626
87.1659755242527
87.3816319352373
87.8156305617598
88.2281498953093
88.1545345041506
88.0842798620331
87.6070412120908
86.339800431725
84.7766064487382
83.6445183539357
83.6217539806526
84.5600663112925
84.8706420033404
84.8481448335379
85.6504895851161
86.2620220335481
86.5905254083215
86.7741894248026
86.8018862910346
86.8349351975877
86.5228230537164
87.0032277022365
