900
4001.38730172967
648.873616496703
1
128
8
99.252245882731
99.2768175154484
99.2120703919518
99.1790544786135
99.2797444792193
99.3178941825163
99.2301870701651
99.1979632561592
99.1959380870406
99.1427128066937
99.2197492658947
99.2820469019447
99.2129051187529
99.2721476965904
99.3895029152823
99.3197970247805
99.2247597575898
99.1860405054376
99.1829881589674
99.2462744177888
99.2249429703876
99.1997391855066
99.2230768311875
99.1522809742367
99.1981662916178
99.390507831149
99.4263220692479
99.1339747509262
99.1361839553216
99.3433097995935
99.3820845789834
99.3596944907994
99.242987779654
99.2343407342845
99.3978007536752
99.3350923527007
99.2669998285694
99.2045100249635
99.2852437101675
99.4329678293977
99.1829061033875
99.087788162804
99.2586471349265
99.3649772157152
99.2419795325444
99.1949440822397
99.1881183489123
99.3352035400912
99.4212391706554
99.3046019793155
99.1324318617709
99.1603423542859
99.2885704173728
99.3685721952704
99.2511632097404
99.0852027579641
99.0841188793036
99.2101731200762
99.2858851127445
99.2206200054206
99.2136363397779
99.324920830593
99.3904589592488
99.260768643589
99.1403901012268
99.2984900400252
99.6122193167461
99.663563688672
99.3818592256338
99.0638714900126
99.1959969324938
99.3191042277189
99.2342110315335
99.2034039990407
99.0489857086564
98.9646334701235
99.0762690319479
99.1473807474387
98.7831353988835
98.4366548473866
97.9901701718135
97.6673481458641
97.7695927660171
98.0089331653431
97.9671729610191
98.0710450631459
98.452530452934
98.5957234615407
98.2633728556659
98.0030720346478
97.9771136753993
98.0943206862793
98.1308879482147
98.2854018337188
98.434006259826
98.1371799240899
97.9441731058138
98.037360596152
98.1868741456587
98.2990465874181
97.9198616962638
97.4671169768693
97.4400542435653
97.7390172215776
98.1216511147443
98.1055758988666
97.9833847486305
98.1606257127202
98.2984725956594
98.3538813532302
98.430387802833
98.2259144692579
98.1644197384343
98.2862794925049
98.1735899080223
98.1194683036474
98.3558375933833
98.2732369722393
98.0019278568143
98.0446183382793
98.1902186784498
98.397896858362
98.3487159176449
98.0719281139732
98.1924251186337
98.2192979825848
97.998766051697
98.1641153351358
98.4037657679947
98.1949737594676
98.0440340977233
98.1112888107751
98.0126678059862
97.9114489210839
97.9790846550921
98.0857558361262
98.1158837554168
98.0381666778204
98.0979751263157
98.2114021302293
98.15703879875
97.8955732881079
97.8904519262584
97.9230911327246
97.9727852251559
97.8562532063657
97.7013529851036
97.822581905862
97.6861413690508
97.688593056054
97.9524209827698
97.9565554529174
97.862454417361
97.8468554095272
97.8554820899603
97.7432764469468
97.6663819139193
97.6711078066585
97.7498045353782
97.780750426835
97.8137151867282
97.8378618162404
97.7632106110582
97.6746572658362
97.5017278458527
97.4966175356321
97.6241705802677
97.676318069178
97.6547468967885
97.7026111777193
97.7314811433032
97.6424696231785
97.6102101353987
97.5362846042506
97.5784340690819
97.7167825749374
97.6286530277817
97.6931431730248
97.7171719059597
97.5350550460408
97.4543293045664
97.6455268002654
97.7490614858401
97.7577796633833
97.8006892973134
97.8560798241246
97.7354704546563
97.4174871584404
97.4562754355475
97.5211894446139
97.6391208362806
97.7565418871477
97.6705615441372
97.6922259660484
97.7417665686357
97.6234923577428
97.6115319835595
97.7087598968746
97.6851234562942
97.6513107141199
97.8346835890776
97.791263552668
97.5007970404019
97.5362847099163
97.65977651007
97.5528723636407
97.6144442346557
97.7749139822633
97.6191908116378
97.5397015171266
97.7303140021883
97.805329383154
97.6410747558365
97.5362542600189
97.645257389179
97.7202009586012
97.6244610322297
97.4981385727263
97.6563802334354
97.7096943404072
97.6698188798561
97.5890601994025
97.586154270771
97.7186775541495
97.7416976894661
97.6686433194503
97.6515596719875
97.7663243737656
97.7333041828051
97.7759415532063
97.833720714141
97.8458478065683
97.8745256122262
97.8449256145702
97.7471559604843
97.7611869279777
97.7658308932756
97.7543070137533
97.8849783492678
98.0100793204267
97.9398119573352
97.8595711708143
97.9184657709583
97.9533126321573
97.8195576443377
97.801357391654
97.8724475737556
97.8751701999935
97.9006391134271
98.0072969900107
97.9697492422886
97.8610120135778
97.8615222192438
97.8425254998114
97.8427148588585
97.9187309356572
97.9371343045805
97.9782498406426
97.960000262952
97.9365059858918
97.9821916615671
98.0613917623689
98.0692470209235
98.0253818242629
98.1036287417181
98.1958538716816
98.1303541570782
98.0679511812562
98.0570374658046
98.0771863528087
98.1014360473026
98.1275380777985
98.1395439727181
98.0616690370143
97.9693739212907
97.9856495115199
98.0570225526214
98.0504235310185
98.0082888827751
98.0659498568934
98.0143158965296
97.906244341642
97.9127941986655
97.945934064278
97.9919451594534
97.985105655916
97.9129740714247
97.8646572503934
97.9120681283812
97.9931453752457
97.9702701754422
97.8323074555784
97.8149697469833
97.8869067255415
97.9397630049674
97.978847243813
98.0145417961924
98.0780436131553
98.1484841526817
98.1540437999908
98.1273725639567
98.0850611433145
98.088241207372
98.1202477570343
98.0640079830204
98.0406361390637
98.1151562009882
98.1146201808
98.0853713316902
98.104494495345
98.1500760310822
98.250366784752
98.2318082814071
98.2237773530707
98.3590133869638
98.3426570355412
98.2465208350312
98.2897836372309
98.3709635475
98.3593007149116
98.407586238533
98.4499951430528
98.3734259133743
98.3571428697553
98.4214660883174
98.4704460319941
98.4295107135822
98.3849332657828
98.3903598574785
98.4230001408844
98.4143662114474
98.4349993481693
98.5004720528997
98.4909404451838
98.4470341863381
98.4391951120165
98.5086811966475
98.5308108241111
98.4835947432917
98.4738154288554
98.4856818875897
98.4913537721525
98.4654769417045
98.4194993389246
98.4147027020453
98.4672521905588
98.5112651283515
98.4897427076202
98.503109273873
98.5887488013319
98.5811318892746
98.4800078874608
98.4566706097216
98.5099048581259
98.543591311561
98.5360419134388
98.4994121860126
98.5198593917967
98.5814421273057
98.598299246463
98.5889535744097
98.5684178406851
98.5906782108872
98.6145851720049
98.6076615368328
98.6401531205705
98.6184112842878
98.5219140785738
98.5562485374776
98.6486553729861
98.6056430152614
98.5528021307912
98.5081047278169
98.5246617851257
98.6175410957412
98.6077863076653
98.5389004933682
98.5779199296892
98.6054638966644
98.5230046289367
98.5420307151389
98.5856289649305
98.4934451955821
98.4513208197907
98.5478263069937
98.5532052148908
98.5133293918013
98.5455425995339
98.4894547574983
98.4167463957303
98.4665846089408
98.525115355265
98.5764310449607
98.6026968946024
98.5258837549972
98.4847990275887
98.5635347134246
98.6752893710027
98.7145374637261
98.6425757863179
98.5050262781358
98.4741837686687
98.5383367600288
98.4886979147182
98.4658204654587
98.5823174058441
98.7089978315261
98.7078768634287
98.6113409638108
98.5775794941849
98.6433909436315
98.7239799286828
98.6886780439138
98.5913240999813
98.6633030089946
98.6727352924915
98.5145278141506
98.4949275164178
98.5318146289187
98.6015386356543
98.5609983517495
98.4821361857125
98.6191385511838
98.6822594604686
98.53072691509
98.4759025961077
98.5598945643605
98.5442755872492
98.4992468787728
98.5952243548278
98.6267223306032
98.5177756739223
98.5254734155634
98.6567550546137
98.7235078430506
98.8100882217097
98.9262273063702
99.0623487340248
99.1253472494044
98.9207507741789
98.7812547493403
98.6567418728354
98.5137352049437
98.6236755098439
98.8511301229837
98.9150989224496
98.8533594103443
98.7142680669674
98.607105259779
98.6473455488148
98.6867482936104
98.7314455875896
98.7595064923463
98.7042902274764
98.5898485658765
98.5928747927416
98.6643120636976
98.6541441740534
98.6254658325798
98.6665253133994
98.6850927627909
98.6167643366692
98.6255536469253
98.6619264918273
98.6042724855459
98.5671432115458
98.5976116208906
98.6074512344386
98.6396766934884
98.6421783941651
98.4293678400298
98.4555220480936
98.6689640335697
98.6277802654921
98.4852999191142
98.4898174024139
98.5496224446217
98.5811305024887
98.5606714906865
98.5749563277869
98.4150440571824
98.2472160575064
98.251821881992
98.294493775699
98.4058912279797
98.3591567340313
98.1899520293532
98.2414561159557
98.3852826945437
98.2347930671565
97.7522025689802
97.7615955306914
98.1674330986555
98.1952271909626
97.8916250747803
97.8584201644961
97.9682674174293
98.1353564684659
98.1297778641688
98.2607163509354
98.2688767557326
98.116622404218
98.2425918235421
98.4606645769467
98.4197390416198
98.4869047487162
98.5466341199701
98.6031150659631
98.7833375824701
98.8351618484138
98.5195182298225
98.3649407515601
98.5103413083068
98.6258908756165
98.706394797228
98.6703420031848
98.550265709112
98.5536756678901
98.6276575953259
98.7567785928169
98.8367613579863
98.7537388515011
98.3721214522075
98.4914002526329
98.7781177514192
98.3737830753016
97.989042028253
97.9147286334387
97.9539344606865
97.9826562829338
97.8972436784104
98.2061529222929
98.2469259278479
98.0290670858712
97.8454727351741
97.9974278845985
98.1472015658435
97.9217812728417
98.0884558401479
98.3507782057281
98.1031831848917
97.9148624699116
97.9861772149169
97.7033699783982
97.4384777273063
97.710238800303
97.8202695832309
97.9943745381678
97.9209541644377
97.6853673426365
97.8732602201344
98.2709063203031
98.2553534417545
98.1239671070931
98.2274773678916
98.3904628031899
98.4993616646986
98.5312249761231
98.4432104264393
98.3706936270851
98.3291799171149
98.3783799408301
98.3619664049559
98.4572087884636
98.4811341677611
98.4704672115806
98.5274918967437
98.4608837560486
98.4430023583925
98.5169373239461
98.5204266408371
98.5567071252351
98.4859821784138
98.413992813339
98.4877893863497
98.5224720566567
98.5399879514769
98.6585629642972
98.7425897622041
98.6083121417007
98.548346312978
98.6662117289057
98.6772564902132
98.601073205146
98.624096102617
98.6647384129749
98.6431345397794
98.6620327725537
98.6163860008447
98.6630503270096
98.718742577798
98.748370088717
98.8307379317082
98.7006869241999
98.6581906774635
98.7093469902975
98.73988034081
98.9172526242205
98.8135928718988
98.6365481675211
98.7511628981732
98.7292317485207
98.6608235783443
98.7929817047883
98.6685965216031
98.4579596966267
98.4712487506833
98.652386892361
98.6022027399574
98.2750898079183
98.3040666341267
98.5576953730653
98.792211658983
98.3097513669687
98.1634429049469
98.4551822503411
98.6214270998565
98.6486872306378
98.1831573188454
98.0360881472422
98.3469176890636
98.4916669073879
98.0216282589065
98.0896741782555
98.2113143405705
97.9551842652478
97.7968301229356
97.8100855658194
97.9264436551772
98.3326079040581
98.0099540310546
97.6640436465182
97.5446486390948
97.6990312175414
97.9279149627544
97.611660178672
97.7070789362619
97.7448244225255
97.5569352293109
97.5832418585208
97.5319079536204
97.5402361303203
97.588189405846
97.6111480702382
97.6984006921668
97.7967970369087
97.8454575023852
97.8222093534171
97.8207789971031
97.9756969874055
98.2094446070934
98.0748757112335
98.0601298024689
98.1236048930684
98.5518235585358
98.5640597382049
97.9294861493157
98.0620410628388
98.3757516316851
98.6582403276455
98.2404482058361
97.9780862547042
98.149268870331
98.2774732705709
98.4375249051079
98.3079991991907
98.001810122057
98.0306633383962
98.4170448672243
98.1441003723522
97.8360367716284
98.1605992450412
98.1616380426545
98.2196477395477
98.1138010165504
97.9752617132261
98.1274130555932
98.2728722809503
98.0322276287167
97.7541544049169
97.8824742113016
98.0013745965909
97.9402600812239
97.5209782005271
97.6721242384222
97.7238901961372
97.6888722808151
97.8806954318267
97.7286406329286
97.5819956857451
97.6782797617934
97.7672628996567
97.844078802528
97.6007345572939
97.635613935541
97.8810304054887
97.869839489766
97.8313703714237
97.9601917960715
97.8993831882505
97.9056437054593
97.9934095807961
97.972956740032
98.0392603196076
98.1072877305809
98.0284412871945
98.0171595177871
98.1449616718304
98.0892408713228
98.0274890808917
98.0305105148025
98.0101755037492
98.0237185842876
98.0287458087223
97.9319797424497
97.8676309801366
97.9201379196063
97.9099781005502
97.899266172145
97.9326076289586
97.8999727186488
97.8499968716044
97.8738840486457
97.8616508260505
97.8111987691877
97.8114039644806
97.8322173343758
97.816412465726
97.7470354504455
97.7040681480561
97.7177183717704
97.6891208399587
97.6598920561738
97.6581906011188
97.6473681017106
97.6060645456306
97.5352347182926
97.4403481189505
97.3654855334788
97.3141337382719
97.2461005890835
97.2005026430167
97.153777857853
97.0529530672352
96.9325195701307
96.796594115556
96.5807313006736
96.2633698608875
95.9470614558286
95.6612438329788
95.3760557266347
95.0848857136457
94.7873039711272
94.4745006375267
94.1445913598687
93.764104458341
93.3068642231351
92.722894378072
91.9587504577395
91.0545381209757
90.2004940910651
89.736207057434
89.8462135796658
89.9495361609031
89.5088358655201
88.8201565782475
88.1704266915877
87.5964049884023
87.0728804544294
86.5749101266101
86.0762665950338
85.4957123820129
84.7712421856471
83.9927878393989
83.3902548319655
83.0381284948318
82.7285573071307
82.2612863404478
81.6988730434255
81.2347404511927
80.881451286727
80.5422784586095
80.2366921045429
79.965589110083
79.7400315105625
79.4409447225486
78.8755884705989
78.024672712753
76.9440789450811
75.763227989593
74.649488194849
73.615827018052
72.6351004707106
71.6967489644445
70.791692908235
70.0596763804648
69.7877426767474
70.2168833275716
71.1316935322642
71.8564867627234
71.9401134049754
71.482971647089
70.9897573893545
71.0591925435278
71.8658589824835
73.0368841955845
74.2724695196379
75.4293857755087
76.4402859559146
77.3067777138591
78.0426132344153
78.7814009064013
79.5039976268715
80.0638373509073
80.5336162353755
80.9509418743878
81.2944984250538
81.5812462797478
81.7601246892846
81.7672430797695
81.668268755735
81.6298198478974
81.7108698141436
81.8477806523147
81.9172951799202
81.7707174212109
81.4001109711235
80.9646187019004
80.7662599774082
81.1679336603555
82.1069093623727
83.152825511681
83.9774717582937
84.6093762166258
85.2008779295533
85.7252660495265
86.1191627290144
86.3838261393131
86.7069939344549
87.2540071012924
87.8293397241505
88.2592891730778
88.7073204823621
89.275598558412
89.8127805687841
90.3054433023419
90.8534346708447
91.3364048080005
91.751498714323
92.2054422620602
92.5576451456417
92.8773323383546
93.3118593023673
93.5090775955077
93.3488172711183
92.8729940478493
91.6328060701343
89.3970113555694
86.8441401384023
85.186641975126
84.7556291163927
84.7358936626506
84.4391850138882
83.5560448477757
82.5136865883919
82.0391555228005
81.985314953393
82.2949915252621
82.9042284832207
83.3766355634965
83.7404060763112
84.0993776628518
84.4748227334782
84.8284848602179
85.077670829008
85.3163033483779
85.7754416607952
86.3046681893841
86.3672057721463
86.3290461466828
86.8907106830761
87.3979159798439
87.4873366291828
87.6891996976019
87.7544641148028
86.9646065759556
85.0969678050062
83.7677145736232
84.0898254812044
84.6615977054619
85.0654736032492
85.7462067792155
86.1853735283649
86.8901208562863
87.5816112351407
88.0209168425446
88.6399812615389
88.0633962486123
87.0914456993254
87.0531566356862
