900
4001.38730172967
648.873616496703
1
128
8
99.2347680560631
99.2546717233694
99.3008016988323
99.244974029032
99.1127856314372
99.1689333741038
99.3097940944083
99.285838932728
99.1983109760607
99.2020188532383
99.2910598397911
99.2924838668273
99.1833859683477
99.1583966812368
99.2545101734031
99.2126002375819
99.0926391804105
99.1786890549843
99.2824876231363
99.3199148535895
99.3783586959719
99.3738789475549
99.3208976188303
99.1997650316627
99.1927485789205
99.4175766268144
99.6296183473771
99.4119494076606
99.1605118418894
99.1381120296623
99.27616559645
99.3419430984789
99.2067941674259
99.2249338749751
99.3576858122149
99.2484230067835
99.1376970423823
99.0188966946878
99.21980332433
99.5078865911879
99.1929310118089
99.0843730278796
99.2105781589486
99.381282460841
99.371955851984
99.0689039115584
98.97100967515
99.2244794990665
99.3978738964544
99.2240879680522
99.0420284418597
99.1194031216166
99.3505387032274
99.4491944301951
99.2843149007498
99.147339477666
99.1566435624084
99.2289481037023
99.2396339229969
99.110381108205
99.1031044204848
99.3121695889662
99.4006331507314
99.2732403788162
99.1722225991351
99.1624609027246
99.3750513628924
99.5736209429329
99.4300792496295
99.1044439815098
99.2114442369828
99.3451581660666
98.997986423683
98.9196311173968
99.0625468361344
99.1004759761368
99.1253058566766
99.0667821097227
98.721784911184
98.4173898957896
97.9086079221811
97.3163204170818
97.2307088350155
97.3357592703883
97.4646702111967
97.6939964387484
97.9737774713348
98.1127825962331
98.1626646828242
98.0280527413006
97.797188364523
97.7535314641343
97.8362640151734
98.0105720569009
97.9436136840957
97.6651564877015
97.6317642412235
97.8536756229732
98.1104567626344
98.0833143286497
97.5177029126538
97.1984167448142
97.2042819706215
97.2968853637953
97.6093760623266
97.7937436308424
97.8684756971773
98.0553245059671
98.1086104280672
98.2845616724353
98.5573696834542
98.2715798014628
98.0579860464516
98.2176084521076
98.157974881668
98.2225522948999
98.2697693400731
98.0140357360286
97.8379931275439
97.932779326046
98.0157892994747
98.0532414429188
97.9873030888971
97.8430100874783
97.9527337240307
97.9429665898356
97.9716994718421
98.2576566567135
98.3648628954738
98.1709549361307
97.8989435185844
97.9017050328184
97.9237160608205
97.8352620731312
97.8152180167902
97.7761824566024
97.8087087012463
97.8058538389409
97.8202695936266
97.8902889439163
98.0356843584754
97.9154594219738
97.7724929023251
97.8952128243098
97.912638445771
97.6507811402719
97.596257803838
97.6838143205197
97.6256008596253
97.5969791695477
97.5415251605204
97.5678275731501
97.6676185709307
97.5401286121364
97.5516933801299
97.6826765303521
97.6002058236832
97.4994976839997
97.6005803380467
97.5661268563144
97.5572440082612
97.5815539557124
97.6783906709722
97.6911586720101
97.5392234192612
97.475168580853
97.4738458822739
97.7039244600684
97.6866651006108
97.3522401990294
97.3078652862044
97.3949747279147
97.4442983760173
97.5845698032404
97.6350975209941
97.5246838331008
97.474422246339
97.5587728996588
97.6645719957107
97.6596242289794
97.4630010874184
97.4075493755309
97.5380996420557
97.8020695844543
97.6828004494996
97.5018405331356
97.4852607114244
97.3897692147395
97.4294690145831
97.6054172638752
97.6898838702463
97.6418566863434
97.4572549793676
97.4140616879018
97.5126447003928
97.5841493344424
97.6106897833443
97.5463106072036
97.4774932097891
97.5667616207925
97.4620176443503
97.3891802053809
97.6020870094043
97.678736639319
97.4679308905728
97.4238163604957
97.5910874809667
97.5704429740067
97.4534107298848
97.5700624929805
97.5839658940583
97.4330410262972
97.4259698284912
97.4577312226709
97.5363601875373
97.5392688170219
97.3321428708136
97.4493630477426
97.600069719798
97.5067588418188
97.4975376935593
97.6283231831187
97.7665825709877
97.6650939461465
97.6279543212845
97.7022227777055
97.6717868011729
97.6400375169655
97.6854455837553
97.77804608258
97.8375224011835
97.8167848002788
97.7728402253893
97.671890303176
97.5952152271877
97.6506560558531
97.7648931840398
97.8823866779825
97.8622528616129
97.7292821915883
97.7165529361749
97.8064085585399
97.8995513644236
97.8378911380721
97.7532766930427
97.810779619838
97.8630341348941
97.849779596987
97.7942674839535
97.7898910999092
97.7698003762565
97.7552962762405
97.7419334381196
97.7896377192827
97.8583060518862
97.8727672123928
97.8527291120699
97.8941772343543
97.9392315818642
97.9575984273342
97.9590243817298
97.9135079631184
97.8717459907075
97.9094159068883
98.0564689165915
98.1232118722164
98.0904117312064
98.0119206476286
97.914707656035
97.8904080795726
97.8826923828193
97.9228362858292
98.0416477613192
98.104806967652
98.0096584739649
97.9278212643304
97.9816957831358
98.0100797858905
97.9733370124583
97.948750627223
97.9406622224054
97.9531395478998
97.90636960554
97.887708008039
97.913760533975
97.9726515545038
98.06607001922
98.0521462765585
97.9529594262524
97.9108979491787
97.929347510661
98.0241564456243
98.0078374715008
97.9160986382002
97.9905831558291
98.0584532260697
97.9748496788167
97.96692543315
98.0569687316464
98.1099861745442
98.1279140482978
98.0647989605896
98.0468176151154
98.1241009633876
98.1240879622895
98.0677531943372
98.1397973234003
98.2207875252946
98.166065352254
98.102505756319
98.1464791851275
98.2379270881785
98.231042866367
98.2192421004017
98.2802069861558
98.3298533886287
98.3319809752384
98.3062453113147
98.2803609563667
98.3435704579724
98.430012258474
98.3779086847536
98.3408715362476
98.4037344480546
98.3842899673361
98.3348625892272
98.3500330058215
98.3677261393561
98.4339201595094
98.4611156328936
98.407579825457
98.3991017275114
98.3784833403028
98.3483793319218
98.3679425193307
98.4040863298103
98.4349102143538
98.4552642862402
98.4434847672772
98.4055620171176
98.4074040686104
98.4382818822102
98.4362759195085
98.429380893151
98.4322392635437
98.4587503026985
98.4704587243027
98.4304693169509
98.4227422553516
98.452072453707
98.5140410052978
98.5354756703968
98.4614079540237
98.4514827288843
98.5486186660447
98.5666160733564
98.461819443916
98.4111884291379
98.4699306549997
98.4984045895279
98.4950115585971
98.5297030273457
98.5616283423075
98.5409622696399
98.522724989505
98.5979041132209
98.6203085771375
98.5898400510963
98.606909201923
98.5814880217378
98.6078733532318
98.5668542901025
98.45539626809
98.4715890890938
98.4909728586861
98.548930679621
98.6258548445847
98.5620857402101
98.450845132889
98.4770715087327
98.5236030791859
98.4812276431265
98.4771338485284
98.474662834766
98.4719213514199
98.5312420219309
98.5031157213599
98.4654265976793
98.5088244879404
98.4963384928057
98.5023867415991
98.496595923158
98.4337655610116
98.4755558062811
98.5124963818591
98.4650771296761
98.4464886166339
98.4872272775071
98.4784668571977
98.4210548277087
98.4302166361257
98.4942950289044
98.4990326542471
98.5133173438065
98.5824565843013
98.6221117732524
98.591403604021
98.5790930210375
98.5706129040978
98.5281523692811
98.5364700285252
98.5165488531534
98.4699779754061
98.466703145319
98.4879735386111
98.5108009227183
98.5569314091155
98.587963472333
98.5284039824207
98.4916532148274
98.5375234413241
98.5440013821176
98.571211093923
98.5940167873186
98.5555879735346
98.5073631918493
98.5220896868583
98.5579967573904
98.5083290409641
98.5478505772462
98.6065863521677
98.5340718522827
98.5516340062447
98.6610085885411
98.6984243883148
98.7926005716146
98.9493444853488
99.0292416181766
99.0166425867277
98.9405009362551
98.8589296700983
98.7138830329718
98.5165512060182
98.6384237710391
98.9605252552929
98.9866820131006
98.8439771174787
98.807732241292
98.7536847943394
98.7008358861303
98.7332310796728
98.7457393337061
98.7298728499892
98.7501615904423
98.7833358856778
98.7533885404128
98.6439963927389
98.5995018793935
98.6210620145679
98.6766976052759
98.7711364376976
98.8002522703161
98.7735731221431
98.7471169493156
98.7367040072579
98.6820415915975
98.5129908454854
98.4803565533938
98.4786540493459
98.4354507296566
98.4237827658309
98.5030240532361
98.5835688159564
98.4471077480831
98.3444984520333
98.4951968770085
98.4734082935034
98.279895230311
98.3318172143007
98.6608611049184
98.4758333194847
98.1185077504657
98.0303963366265
98.3200237639662
98.5598266403958
98.368686927956
98.0799133358148
98.0298893909681
98.0268705438675
97.8912751232767
98.0454294736238
98.4038058716034
98.1808778782563
97.8301972461145
97.6397837871275
97.4329817600713
97.5482910950997
97.5835799435047
97.7738515200993
98.1425788186773
98.2003651836648
98.1986458365377
98.4185051971589
98.4408705092186
98.4400881739536
98.5128431182059
98.5690020004416
98.569288561789
98.6095288809001
98.5448849972715
98.4571789013354
98.5818456495941
98.5741958468783
98.541497294082
98.5940689020295
98.6825750680004
98.8002085664123
98.7703507995671
98.5684211014079
98.3297435833723
98.4021990946701
98.4399202655131
98.1609571137167
98.2425243255029
98.216510220939
97.9748101938792
98.2139391555895
98.3447722904403
97.8802501763656
97.663442228915
97.7523796309451
97.6898817802709
97.5088378831164
97.8310750426664
97.7651517332941
97.5630913762829
97.7787362149048
98.0276142042613
98.036438826578
97.9320522932958
97.954284682744
98.0765150464147
97.9197044624071
97.6846975861446
97.666914582818
97.6597222754777
97.5911402976539
97.8314219863833
97.868678168935
97.8677344969478
98.0861343290632
98.2797523493128
98.0296334445474
97.9448107308465
98.1463364791558
98.2066888597386
98.3298161506315
98.5285785564287
98.4305444568163
98.3107995850379
98.2929082372159
98.4689085479846
98.5373758058567
98.4592384722337
98.4283084528066
98.4961773880443
98.5264576255247
98.4768874285686
98.461473813942
98.463487624152
98.4850444459268
98.5703398652815
98.5385650244195
98.4143272227939
98.4651866784506
98.5753101563144
98.5881274005657
98.7155759529977
98.805128205819
98.6018614779849
98.550346336728
98.6287957286399
98.7368966404422
98.6729606881573
98.5472702678381
98.618592652329
98.6411246332793
98.5886543972453
98.6015541212323
98.7306538871485
98.6981258896067
98.6087084682164
98.6683323806818
98.5458921986259
98.5562092991821
98.62843990131
98.6537654141352
98.7600170594699
98.6575366361619
98.5062810758912
98.6150285017908
98.6597203655381
98.6502285199582
98.7274677307013
98.5524667757236
98.455764011789
98.5088812102834
98.5962491643115
98.4412562913394
98.117668513991
98.1762698598274
98.4262504827652
98.7160564442118
98.2735531494346
98.0765722376029
98.4228258074426
98.63552205792
98.5950005913564
98.1574429003849
98.0187082703707
98.2802975817024
98.4473786637766
97.9449287361478
97.9749560644036
98.1136119472477
97.9406956999047
97.7751671879124
97.7732350638528
97.8577563711611
98.2474300104063
97.9342309968396
97.6218877635781
97.5902180849766
97.7672906889583
98.0525817088479
97.5961587845145
97.6195017749612
97.8080043378008
97.7186751761475
97.728498050758
97.6261162113282
97.6065444314297
97.668496091861
97.7530619226047
97.8870945086313
97.9244565423961
97.9374842166933
97.9304857319468
97.9439484996851
98.1037494307594
98.2599097404974
98.1488419077161
98.1836037731257
98.1987190841126
98.5884407657671
98.6486316622665
98.0077295410541
98.0816812724631
98.3905017120455
98.6946279834848
98.3014569834662
98.0385731078043
98.2310217431731
98.3333045250635
98.4883892896235
98.4175373778611
98.0914930518768
98.1499684974708
98.5597485326156
98.2672740246573
97.988213582529
98.3342965205354
98.2968582550965
98.3009592121593
98.2083980563013
98.1185073969667
98.2921501953986
98.4277267844067
98.2191147969703
97.9625533628775
98.0778547128787
98.2295335452991
98.2871821158402
97.7851074987409
97.8357490833536
97.9073798351833
97.8853851155722
98.0926410980242
97.957403731342
97.748906885838
97.8348204452639
97.9619482229919
98.0294981357747
97.7536274455168
97.7328083784149
97.8998401888877
97.9397592611184
98.0082700708241
98.0606228269957
97.9152058748336
97.9250448893889
97.974321874157
97.9112577508911
97.9918277265331
98.0666260455561
97.9745813818926
97.9849519689819
98.0878989506295
97.9749390250965
97.914014349422
97.9922663576621
98.0004032967768
97.9754884971651
97.9939782750851
97.9159825170515
97.8251710697563
97.9101667045539
97.9321533581412
97.9012741515077
97.9035762887045
97.8779127407538
97.841491744955
97.8539095629514
97.864948949896
97.8355686264951
97.8269619619836
97.8225601116103
97.802634225729
97.7793235598809
97.752038288622
97.724132394985
97.6959722936619
97.6735235044223
97.649934718771
97.6395681601501
97.5796266259239
97.4901372152591
97.4272575647827
97.3517204314499
97.2715947457659
97.214950560426
97.1502541050637
97.0716392094729
96.9942834248659
96.8709084492503
96.6857107610129
96.4827882059555
96.2244814743633
95.9176515947744
95.5918380089251
95.3006931325419
95.0184735994398
94.6794466431663
94.3081524128872
93.9402907792966
93.5452155211082
93.1056201612958
92.5577169698056
91.8286148927791
90.9848304166411
90.2141644246906
89.8009595025574
89.8445085890909
89.8515106423727
89.3821511617131
88.6879500488785
88.0510765291605
87.4973656694729
86.9614076552718
86.4024192558434
85.7898632779168
85.0669566131749
84.1857465493579
83.175586722686
82.4053735249426
82.1170490866201
81.9030675525423
81.4075618104222
80.821186954283
80.3405577988019
79.9479116785846
79.5943229793621
79.2611504955687
79.0100895381528
78.7524739944005
78.3473143645273
77.7356676761642
76.858350541352
75.7540361124421
74.5187797067561
73.2492686175747
72.0069416830002
70.8064182917822
69.6089787470267
68.4099497336134
67.3224699586334
66.6813371128959
66.9694368634803
68.0222866473412
68.904634628184
68.9690667051456
68.320738144976
67.5307053414347
67.3234699148712
68.038571183828
69.3542688332605
70.7640955106944
72.046078024223
73.1890870765237
74.1952003543856
75.1354649801447
75.9955868122131
76.6919870687873
77.291833335668
77.8598831220248
78.3528750194762
78.7470939107747
79.0444547293629
79.2274700212385
79.164846501486
78.925714063141
78.7986927136758
78.9000319815899
79.1012805423972
79.1891482468299
79.0371709926822
78.5765802647525
77.9562140840817
77.6261891419093
78.1392172867064
79.436653093632
80.7904839365882
81.8603044304602
82.7979886034265
83.6196904835422
84.2908986639539
84.8314719225176
85.2658431431053
85.7581793746265
86.2905044815729
86.8293205283976
87.453106055547
88.0560822344896
88.548628517338
89.0715568091194
89.6068751145353
90.0385860410006
90.5642035042918
91.074149046239
91.4354709367562
91.7519334599104
92.0440026275429
92.2566067617053
92.3899936497412
92.359593676536
91.8733897506214
90.5612415500302
88.431604796995
85.9794764795963
84.1802203005314
83.7216750459909
83.8478351114849
83.5710316376878
82.7080801539025
81.6830440454421
81.1287899879738
81.287296265127
81.8253915086851
82.2574176965984
82.6083846357556
82.8948771434961
83.2578184829605
83.725531482102
84.0319176716282
84.3903128481576
85.0269043391611
85.5705248022843
85.7845359157873
86.0160875004889
86.2810108076853
86.5616699806792
86.8248761671261
86.8711292917009
86.853556927326
86.7131341615102
86.11946620689
84.5585384150602
83.1292818545904
83.1361010244371
83.7329186412713
84.2143623025109
84.9097407970037
85.425279813848
85.5005464618321
86.6178872386286
87.2188268423869
86.5643612494288
87.0225367127678
87.0484690728473
85.8529117378936
