900
4001.38730172967
648.873616496703
1
128
8
100.508336675284
100.561605894026
100.540425118446
100.545038074637
100.576151318516
100.550670070799
100.552966919023
100.629530045652
100.699622149776
100.610513896195
100.456168050128
100.491955361748
100.551657710018
100.550264407166
100.513785217146
100.438230909164
100.506400809991
100.493921150924
100.44496643395
100.571682014432
100.598771256904
100.544016227027
100.618908426462
100.730868950455
100.652834845968
100.279285814904
100.052038180038
100.486233982789
100.793675893952
100.7149256813
100.497175059317
100.41295609162
100.586636523802
100.641444723612
100.53871372331
100.513901822946
100.515996980005
100.740794120537
100.554398257034
100.204706239024
100.679508240633
100.903951311064
100.624590425792
100.341869236134
100.38821074
100.668269465369
100.775504544017
100.517916644113
100.239616592213
100.552165834814
100.989119593425
100.884842898248
100.483178262696
100.400151465526
100.573740453493
100.721377362051
100.829636366837
100.765800417991
100.587651761076
100.560769478282
100.659645188801
100.541941721015
100.541739529597
100.76829738347
100.807218160507
100.654913296004
100.39932306304
100.368025096539
100.468502171074
100.730106464713
100.718690738247
100.65459068066
100.83991273113
100.807343154511
100.791856501407
100.850591375358
100.60213847298
100.3505516989
100.493567519639
100.57874736377
100.453092366676
100.220061610631
99.9077291814495
99.643302373671
100.053664766474
100.358665743783
100.1772828108
100.085549926522
100.259009804503
100.557644269718
100.596508169326
100.316112201498
100.130620535295
99.9387511232979
100.017603834515
100.537025518213
100.726254833688
100.679479564631
100.407133249464
100.160740622572
100.318611898061
100.240417052996
100.166018781869
100.238812890951
100.394913045168
100.737832237563
100.789931794746
100.616305963549
100.608421010979
100.724982311933
100.644383581077
100.775563402776
101.10496773944
101.075942080058
100.805975211299
100.651964073584
100.775240315584
101.075730176534
101.192951982039
101.382129699449
101.329684425377
101.177055396194
101.090518571241
101.140490280064
101.169159347304
101.332739878003
101.072009160086
100.767404118229
100.971468586338
101.319707223822
101.395052169504
101.074146188178
101.056874626341
101.280039134462
101.219112079252
101.233711659297
101.591012855414
101.533807953164
101.398338177144
101.518664421715
101.312939307176
101.254170346084
101.263799200037
101.218097613699
101.256524423653
101.331291580951
101.423884912811
101.309246586909
101.19343010725
101.3263793267
101.311846398346
101.356866232079
101.345942713512
101.408674706505
101.428235761278
101.380220379682
101.384672501339
101.403936290262
101.412914770473
101.485834384923
101.544345911358
101.443899910541
101.43278916044
101.65723356822
101.424703108248
101.33595363267
101.393707283653
101.343184088011
101.387365831837
101.470251091105
101.475478324674
101.456672515031
101.544606214889
101.533510586607
101.427608134173
101.216910865256
101.309910809134
101.530022848509
101.425666143019
101.298248831657
101.457216452335
101.44848065265
101.217973926838
101.355963225322
101.421065644789
101.359263421067
101.371606897382
101.367172367348
101.370186251226
101.313389893906
101.288324602347
101.337686017255
101.390491608973
101.477277284885
101.455532690162
101.319696339878
101.273828300751
101.383847980348
101.520177617154
101.52288376501
101.473315982405
101.46935651357
101.370595109102
101.251132141799
101.334100426311
101.443967086395
101.669539288211
101.600732601965
101.377833892897
101.450877926245
101.395832733814
101.419955104264
101.494785308973
101.460002206501
101.430035832761
101.38881432133
101.459615026263
101.480588401313
101.447366181041
101.305334534007
101.364339501421
101.531151195424
101.374290123745
101.264356373509
101.302590838805
101.236541915216
101.270868991583
101.274263635107
101.271672260455
101.360438608403
101.278590078588
101.153421964824
101.278200381994
101.429982393058
101.425852551406
101.221940076527
101.209409214146
101.364681488516
101.372848403265
101.261889893228
101.164844725111
101.191450298808
101.201144007109
101.200598203963
101.215302579137
101.273344826071
101.350110262401
101.337555582776
101.323385484279
101.31211515541
101.240291664981
101.185215632235
101.263517496982
101.290485328751
101.221403940326
101.256532346987
101.258597165539
101.200055086715
101.121129285331
101.123310682802
101.192788526523
101.235152887497
101.201307749635
101.261075223207
101.297755967625
101.272810674988
101.211268311494
101.133745774067
101.260220807284
101.373027688325
101.324367519228
101.229885932453
101.20766289194
101.277749354983
101.29983605337
101.313265440031
101.338378876401
101.308958060402
101.337675730857
101.376299648758
101.427216682933
101.442694113358
101.439781134599
101.48859784392
101.444072503092
101.500614292111
101.683865090706
101.684761086238
101.637309432767
101.648811356905
101.726382295422
101.69854725211
101.497814431493
101.429390832656
101.554076800696
101.580942054074
101.50273191369
101.437796038508
101.325442799082
101.245424422018
101.283344510109
101.341548187497
101.371710512045
101.362626402292
101.412085790679
101.476632023334
101.466278880265
101.454489528273
101.445120394999
101.410804867723
101.373142845324
101.345467464736
101.252681360745
101.194055888739
101.229102627713
101.167306303588
101.07601897583
101.102388870894
101.077334801668
101.05260242321
101.092680460967
101.076839493717
101.06439838246
101.083635331662
101.104028232269
101.096975892071
101.082201138487
101.0938136825
101.058276615262
100.987700723587
101.013695725665
101.132732983944
101.157301117665
101.137257127936
101.131099267456
101.097482745571
101.069208405751
101.041181619232
101.058908423053
101.119047566843
101.156647492359
101.176615542687
101.113836619043
101.028503124557
101.068108303445
101.103187311989
101.078440482468
101.082876532733
101.065772303153
101.053816898827
101.06097834411
101.044921912052
101.063397462263
101.04550142651
100.996823738276
101.04792030765
101.095370120475
101.038426005409
101.01071587511
101.029852369823
101.006693320537
100.970048833373
100.969175535206
100.990450185507
100.986936880626
101.013501164412
101.024036416771
100.95334389338
100.963420817004
101.037275530425
101.046339124128
101.025838067646
101.065364861552
101.105531591043
101.075443320204
101.099196025002
101.212938626286
101.236750088709
101.148805369145
101.129982809306
101.190546491928
101.188464830998
101.145633968411
101.175258010682
101.206596117042
101.218893204301
101.240850555506
101.264328355493
101.301016102295
101.276007520319
101.23488529014
101.178492203826
101.216917744046
101.340008245594
101.284348302243
101.245517796147
101.277555514182
101.234067480752
101.198781081199
101.170077403862
101.204802959733
101.364623829849
101.371301447556
101.223957894414
101.211321315138
101.330964962764
101.359198786424
101.2603656444
101.250394090031
101.303931795274
101.274244019778
101.243016176132
101.165033441139
101.170656064036
101.300562177281
101.358064601217
101.363409330005
101.377121391889
101.359611610804
101.267413485176
101.225724857897
101.32897642064
101.41611152531
101.36856112576
101.302445949574
101.311397277287
101.323195467722
101.259725328686
101.200162025517
101.181675942912
101.276944313794
101.326540049408
101.248669200462
101.200652606987
101.142913497486
101.020244913452
100.875874903321
100.752985965281
100.803902452523
100.864617243294
100.930215069801
101.11864441109
101.281266713262
101.140713398923
100.853780649597
100.821260016822
100.993796810476
101.035993597267
101.050769328456
101.032657156148
100.938801109887
100.95308818153
101.002158264496
101.125247145935
101.247176729303
101.209127954269
101.227230571681
101.272034170712
101.251901936538
101.232478049733
101.203994117975
101.254979767666
101.474713431622
101.634863651078
101.678185845142
101.751833779892
101.74684131736
101.678665495798
101.748031862569
101.876144529484
102.024219863398
102.059606809638
102.101756524548
102.165361531819
102.278170942536
102.170363704224
102.079201868429
102.281407469003
102.289311538282
102.281247814817
102.653365497241
102.667000325863
102.61910221372
102.740491018967
102.921642545098
102.996479927273
102.570086547628
102.615460797123
103.101051052041
103.329613888291
103.488193949761
103.314808856568
103.002544873925
103.423775249363
104.575417142157
104.228391854052
103.037718415846
102.975557782318
102.923202285855
102.83207349943
102.768081036581
102.694199553835
102.490807801677
102.135130260707
102.078893559295
102.098655277148
101.987334032739
101.973085305383
102.008211002311
101.92376628271
101.867030274639
102.057444752675
102.244544631658
102.220391002273
102.230505228384
102.289442589471
102.111987589377
101.854747331076
101.956396803524
102.274649328709
102.434348316071
102.38491753831
102.427720486791
102.551575843135
102.656165640463
102.977237369311
103.555823860735
103.636979336665
103.883178550383
104.114442284799
103.977028659698
103.885773445955
103.855020621306
103.709729849311
103.660000879624
103.429736192946
103.177390905535
103.052847993877
102.727010452411
102.673205909451
103.006111969049
103.139991364086
103.200741445517
103.201631457812
103.350810743496
103.620389779895
103.092857980829
102.684380071076
102.8328556123
102.939896659465
102.658494354655
102.365479009232
102.16315300401
102.116649895344
102.083060058372
102.000619641817
101.926276311792
101.814475840735
101.759206240559
101.806484341524
101.778798713341
101.720281068583
101.623942905234
101.397046493299
101.35352383304
101.442008106869
101.472368867236
101.46389310235
101.373955019381
101.281785043437
101.251810762937
101.161243868605
101.233096013455
101.338196428336
101.314144002171
101.287927308546
101.287627502312
101.113250083544
101.045415727728
101.302631277542
101.288727586487
101.084643805241
101.03814245153
101.119158531141
101.192543751296
101.224791329036
101.167686437221
101.04642163522
101.073312751809
101.055078911179
101.047321354098
101.054943624599
101.006825651702
101.127306838756
101.079926030215
100.998106097244
101.009503752588
100.904109739692
101.063182912909
101.256344794444
101.155687612623
101.113296735461
101.17117340778
101.140873892294
101.276430014059
101.410871219832
101.392569452746
101.226271103291
101.194527385315
101.546780555011
101.48405748473
101.167939516215
100.954950610708
101.337386602127
101.466843482735
101.204928838165
100.94628333316
100.861906881044
101.384201152648
101.485578986539
101.067760505276
100.78799723843
101.269380767599
101.25685414527
101.077508880004
101.227730189324
101.387553765965
101.346095366977
101.157254812662
100.634083547327
100.968564672539
101.424059749111
101.397450472047
101.137179229574
100.87258177245
101.345123450887
101.291678620399
101.113165496781
101.176618552683
101.181574600095
101.331858480389
101.351671277039
101.259106770508
101.277795712501
101.241139609502
101.213390774679
101.238716167421
101.262475138531
101.170389790752
101.017655662524
100.98342274816
101.173034380012
101.139240201459
101.098319661348
100.629150852082
100.69398600083
101.52190214106
101.309090035637
100.910942863906
100.571274903127
101.005117576639
101.405837796052
101.194443429459
100.994479073604
100.795667892138
100.941221488492
101.344412110878
101.271837984528
100.762130910138
101.040813119902
101.469033142547
101.139832558572
101.144401370288
101.126277939406
101.225715846618
101.310558544018
101.102423357947
100.957421224477
101.217162178769
101.547900396079
101.40482809102
101.134314377899
100.998284032904
101.60471699642
101.585544959491
101.477403487764
101.50851205499
101.292200429209
101.336317731791
101.507526518551
101.475404967843
101.38473870007
101.305381469864
101.604832604835
101.654531179556
101.486226474188
101.441353521421
101.423578977482
101.393806165906
101.511159561772
101.520412911061
101.493855817044
101.612682443208
101.520890723829
101.453737408225
101.573715865623
101.579269096047
101.5065696411
101.597366345617
101.602371978291
101.52295938785
101.589009839269
101.663390571497
101.63321104716
101.674087048802
101.744613039851
101.681027008748
101.694349532961
101.683435443058
101.62949213818
101.653569813327
101.673573246856
101.694666904418
101.700028519714
101.653684546446
101.623812347365
101.598386551444
101.57606904966
101.572773949869
101.558689250311
101.522762516596
101.472996873952
101.433205051042
101.433128765634
101.424243915017
101.429131745898
101.420191042199
101.353787528046
101.302126809778
101.266946538297
101.200310116084
101.111569007057
101.036992148703
100.972738824608
100.895295627435
100.758991174309
100.534799984669
100.295490283681
100.035812242953
99.7664524689826
99.5711873226053
99.3837433941788
99.175177677308
98.990665409227
98.8395469694506
98.7247001477097
98.5635470482206
98.3585610190984
98.1421363121952
97.8404424901166
97.5071537576377
97.3084726016323
97.3452520309768
97.3826890017342
97.1681137416163
96.8325339182217
96.4862292757526
96.1177613871351
95.725583168548
95.3204985522044
94.8893805735965
94.3842390211648
93.6943290779704
92.8519034723294
92.1803518917629
91.8477511653094
91.5944870654488
91.2379596567621
90.8353079146489
90.4712726965005
90.1894136544029
89.9604439134004
89.7807548835811
89.6890349394335
89.6594560992537
89.6686245580088
89.6216468196182
89.3793483170202
88.9526924230984
88.5080495522661
88.1468183942705
87.7480091348461
87.277212975702
86.7407617774186
86.1376336181867
85.6412665593328
85.591249388592
86.3227867502993
87.5098519080038
88.314353504424
88.4071166731287
88.0642657438755
87.7391995982056
87.9133151469266
88.7580207334577
90.0063462559817
91.2663828749296
92.2774449671673
93.0740507179724
93.7551557321278
94.3170139671061
94.8117389516462
95.2193968156635
95.528494913249
95.808614301607
96.0293308448804
96.1815898935432
96.2782203409254
96.322932257131
96.2517718577459
96.0433598224333
95.9122909159735
95.9303131412429
95.9594248452993
95.9445630353474
95.8151619082164
95.4888466411891
95.0384786449444
94.8128427954571
95.211977716722
96.0504109590368
96.8053716005409
97.2874960597578
97.6610853141647
98.0064652157997
98.278950583027
98.4265055788606
98.4534260928051
98.5800540032456
98.8587262155103
99.1061920817819
99.2927790660585
99.4381456461464
99.5656184629646
99.7107671312502
99.8274652981024
99.9178073897377
99.9611450696517
100.010553032398
100.088836095866
100.091634813919
100.036314024713
100.014950913186
100.040230112612
99.9186499349289
99.6516447534707
99.1516217027194
97.9869287825885
96.5818286929153
95.9220528451666
96.215444502013
96.6939348124124
96.7598285650324
96.2805551451778
95.8017065605587
96.0309584622844
96.7166892116488
97.3018474584362
97.8320110750634
98.3732542690448
98.4737834071484
98.2695166810593
98.43524963135
98.811787048415
98.9934181112634
99.1164303186347
99.0100068458992
98.8926938736108
99.1999675757428
99.3193251969992
99.261228437078
99.3166696315925
99.028627202926
98.5959454934442
98.7000778291454
98.6958767326445
97.9336756975971
97.1871258775463
97.526134199028
98.1205772238381
98.0223834060976
98.3889477163664
98.8134058071006
98.5019948637478
98.3640682058329
98.6133987115807
98.5028310414289
97.8361120113107
97.9841015008408
98.4822384072664
