900
4001.38730172967
648.873616496703
1
128
8
98.412961998005
98.4518866870383
98.4282365362156
98.3734025501764
98.3644175987885
98.3855479368505
98.4242330144586
98.4768250968068
98.4117198848022
98.3899119963456
98.4295808008375
98.4705321679362
98.4146191456501
98.3563943359161
98.3142252446838
98.3487684089992
98.5498320865114
98.4850852906985
98.348567175312
98.4041858867502
98.4489422669706
98.4136778947672
98.4667809562273
98.5703483053604
98.4336996638376
98.1606602411776
98.1410936770294
98.4905469936756
98.5980340434286
98.5900539869303
98.4322299328471
98.3757934847019
98.5254322514293
98.5090486832682
98.3385449173534
98.425507202888
98.6751561738699
98.7925365055522
98.3828583440935
98.0644556716954
98.739868390928
98.8942071605141
98.5275758321919
98.2698404970774
98.4445899539881
98.721714555653
98.7273303646503
98.4409594496278
98.2140776158721
98.4854333919945
98.8598030101205
98.7714440035391
98.490028229477
98.355963959965
98.5838947816197
98.9111612918095
98.8947765508716
98.670101921254
98.4772725682032
98.4999450042408
98.6289807933613
98.5016418146996
98.4242510660955
98.5030034335087
98.54794292009
98.5530817520247
98.3480894740911
98.2013643743205
98.3452741688523
98.7307691796311
98.5435567944007
98.48781639691
98.8817670785915
98.7853172147954
98.8105125708708
98.9104713536729
98.4482871117262
98.015431558246
98.2021613011011
98.1209036456045
97.6708509539889
97.3396564008511
97.0301781658107
97.0509595945573
97.7323083889499
97.964789137555
97.5392720628567
97.2987999868885
97.6683997964084
98.1596457544144
98.2141724900597
97.9777446673123
97.7025473285714
97.262354692728
97.2868858722644
97.9287972425223
98.1075606130373
98.0817213806225
97.6346889749775
97.2422535169547
97.6251709349619
97.2701582248108
97.0257376338423
97.5616064385106
97.7555178326984
98.0690984141851
98.2315802400956
98.1843635781891
98.1358607293987
97.9931377698124
97.8728944669386
98.1193820800633
98.3988205787787
98.4859284522932
98.4186235169436
98.1730824993451
98.2022128986803
98.4454937009619
98.5032734125239
98.6213292862611
98.6610638117035
98.4665393989371
98.5954812870991
98.8247178596823
98.7438699431099
98.811550329736
98.817049908921
98.5965102925538
98.5775441598204
98.8975982597337
98.9422569769901
98.8427208331233
98.747090709607
98.7126069740346
98.5773891890958
98.6479715157617
98.9915499906456
99.155262940083
98.8907403832253
98.6927521726253
98.5572030821418
98.6374877501897
98.8531829806268
98.7116627180821
98.5246859548063
98.7814683731256
98.8491710905513
98.7930591276423
98.838307612412
98.8445679923462
98.7207041550331
98.7102445714001
98.6643652933525
98.723256185133
98.7813937231462
98.8616942989617
98.7805368715303
98.7401584267598
98.736684508571
98.7500059106154
98.69600983872
98.519459430075
98.5755171058326
98.7889616127367
98.8046874423308
98.8105394526242
98.7608209986135
98.7335640609293
98.728768488547
98.7800396632509
98.5954338339745
98.5161785992667
98.7298674694428
98.9345444707716
98.9220181295606
98.7556798879382
98.674998771497
98.7413504113086
98.638670141749
98.7174674324608
98.8613283268908
98.7642841258457
98.6777796756848
98.6352573339768
98.5791175175766
98.5487019895645
98.660338160703
98.7802005375613
98.8041676289111
98.8672844491279
98.878623083843
98.6824865392581
98.5337174845111
98.7650433929886
98.9800233542836
98.8082169157479
98.5196085330305
98.5916756650772
98.7378421502483
98.781509247925
98.6017343811212
98.576761972883
98.7334285833487
98.8845899963427
98.833120743964
98.6909982070458
98.6638554323253
98.7192133588362
98.7035145965855
98.6861356315985
98.7912074583855
98.9105202158655
98.7541869609038
98.6331063787053
98.7062034237037
98.7455794840522
98.7113596537851
98.7246961795882
98.6376344344563
98.7032479745162
98.8251806888776
98.8749563718601
98.8420157382788
98.7187177077324
98.7645734593526
98.8469996232294
98.7406909140299
98.7455094955874
98.7768230817249
98.6752823139161
98.633537699254
98.7303914774158
98.8274410512423
98.76181449953
98.6572745316286
98.6251584506765
98.6838361599148
98.7500666399649
98.6948001415193
98.7165224212741
98.6347564119474
98.6358847661583
98.8068638258216
98.8529058681369
98.8114150355699
98.7878449232604
98.760014532276
98.7699892230921
98.8330857776738
98.820560799324
98.8398902814391
98.8337607085434
98.7223322967374
98.7622424095496
98.8860970986322
98.9425365238131
98.8712904278536
98.8761172061608
98.8988451305248
98.8163945806728
98.6762473050362
98.6644874601247
98.7889257834308
98.9238239847152
98.9541064961486
98.8467451281522
98.7861597870371
98.7942721058661
98.8674870929645
98.8730270887854
98.84727308125
98.869411408758
98.8059982119257
98.6870291014796
98.6851109339273
98.7989855561695
98.9136032195004
98.9512870377731
98.8410152695612
98.7649635439687
98.8576726206761
98.9100425753282
98.8049329851818
98.8394537045305
98.9341260792492
98.9954176479217
98.9793618865534
98.771968301544
98.7083886779903
98.8579301251216
98.9253616390273
98.9588163890499
98.9958689293899
99.0180011718104
98.9545174778182
98.9117486903562
98.8905464527499
98.863337306907
98.9207151774157
98.9464649850761
98.9223464101195
98.9313889817004
98.9023669697232
98.8462484296911
98.8943755559268
98.9795342951172
98.9573239262352
98.8962123398544
98.8461097903618
98.8392348303197
98.9194975380942
98.9485137136722
98.8996232011282
98.8136223831461
98.8183022781531
98.8731276050605
98.8454136425319
98.8773236528909
98.8831356538446
98.7812223087878
98.7975909841499
98.8648212399194
98.8265518878239
98.8360506254656
98.8797445610011
98.8571497717396
98.8795562189209
98.8736316336994
98.8395550048634
98.8556491969673
98.8523311885605
98.8876893951283
98.9264008797527
98.8729994744611
98.8693000310268
98.9087198351814
98.8636347671264
98.8410728104585
98.8872023662375
98.9187777431019
98.9209359311087
98.9153232765935
98.9051217103581
98.9013559078658
98.905423124953
98.9597985306813
98.9482317633152
98.8340479022727
98.7860019200035
98.870345914455
98.9405960444256
98.9011749362198
98.8353057491388
98.8313292175175
98.8339068778134
98.8591433205311
98.8961062485738
98.8680863060768
98.8186037112844
98.7647796762755
98.7214205476132
98.694768546825
98.6798613557415
98.6845712176544
98.7223358512565
98.7747611695632
98.8063661727502
98.7858913073145
98.7442508846032
98.7368619629017
98.7429795996265
98.7824027367146
98.8894904495645
98.9416376713517
98.9348825356104
98.9938160985197
98.9854431625742
98.8516774477291
98.8342483568291
98.9861299658333
99.1252864701808
99.0931214666805
99.0604068691379
99.1255446166013
99.1443648959533
99.1429064010327
99.1424772931034
99.1535908704995
99.1162837103604
99.0885365125315
99.1032035208354
99.1103978256614
99.0826031977242
99.1521043799693
99.3005769382601
99.217883173247
99.0852045954841
99.0887813936943
99.0174227613938
99.070445468293
99.2505405838515
99.3282140355169
99.3690055302984
99.2393171181993
98.9712718740781
98.9784056445343
99.2171247259507
99.2148656553447
99.145002047318
99.2003985159185
99.1482296831358
99.123184809127
99.192143873746
99.2444722765791
99.2413467768461
99.171527198387
99.1209702553876
99.1744487571927
99.2737465015277
99.1942992116916
99.1821973286882
99.3327582740397
99.346466429358
99.2801059671616
99.2171442671866
99.1971829521846
99.258063474444
99.2851102518461
99.3150747471093
99.2899171841598
99.2394415486949
99.1980604626331
99.1432314544023
99.1318623878659
99.1771163737975
99.1100892400439
98.9331831801994
98.8959006523901
98.9833124256667
99.0837235604592
99.3014813582262
99.4410254230015
99.5052002354755
99.3434908909824
99.0491062755895
99.0046003212754
99.1383575535892
99.2787065755361
99.2513509448684
99.0003931816567
98.8827395428428
98.9854905305657
99.0350848467697
99.021828757122
99.1451001988035
99.1805491940169
99.1567209894394
99.2606822271627
99.2195621715503
99.0410944707434
99.1084001223111
99.2906046970927
99.3582304200654
99.3473765671836
99.4697370168354
99.5648783241031
99.5069078579945
99.5830424205965
99.7957596274472
99.8896898331808
100.007238760005
99.9922201918834
99.8175516431618
99.8027382018874
99.8706903626152
99.9296042327336
100.093894709433
100.326312881581
100.302691444007
100.094734559108
100.318788710256
100.422573148056
100.361154882361
100.453547058569
100.488144902208
100.830571178512
100.631408376448
100.242866602088
100.889689217795
101.135641917259
101.026231687708
101.03149799177
100.917035157537
101.122118369446
101.661508782453
102.122774746629
101.991329905524
101.495532116093
101.18693722671
100.980654235633
100.867430756692
100.637857809655
100.469522737245
100.281798880329
100.121506482343
100.032394481178
99.9238688899108
99.9546453940169
100.01523026345
99.9428649165362
99.976353439571
100.094731547335
100.073232581284
100.026836213434
100.033428713769
99.9058514912119
100.066927195058
100.316734933057
100.315415057588
100.25613383544
100.228270529034
100.204434873889
100.314014163453
100.480037316863
100.892358476899
101.184695520933
101.139848187198
101.236317825086
101.465327304194
101.666613487164
101.720395802989
101.706848654079
101.808411042986
101.483105797309
101.403583360766
101.689577583314
101.411667078825
100.952379318055
100.938863989516
101.101137801132
101.147518185938
100.798142968739
100.741070228195
101.342362255346
101.60014138743
101.490207048291
101.471730786057
101.312188992036
101.037518713992
100.885122137949
100.63588293219
100.388536494288
100.318936683696
100.259130300022
100.106061586448
100.046496875273
100.016123922027
99.8881948608748
99.821098659493
99.8641003157664
99.8670868296654
99.7380366137366
99.5828585601433
99.5177835648197
99.5043679251181
99.4211282696416
99.4708515027468
99.4244951144893
99.312820421249
99.316561521274
99.2374232666804
99.0935082951424
99.2453127438435
99.3195221174717
99.3010449211625
99.371235170576
99.3595439262941
99.1675670431579
99.1581606568824
99.4303094197261
99.3889867022573
99.1773596994815
99.0679154298176
99.187020389849
99.3626000391635
99.3655105421687
99.2741219939043
99.1889102754461
99.177852577085
99.0678234790334
99.0430540513189
99.0480955102425
98.9643024610834
99.1723928889252
99.1573883692377
99.0915774204915
99.0577596036462
98.852767250531
99.0848265547503
99.3384933109872
99.1841377720783
99.1983379217359
99.2550004283374
99.0649617298258
99.2576460814618
99.4258088525506
99.2944175829813
99.0739341064498
99.192356714507
99.5541189343093
99.3937024646059
99.025549176212
98.7177285148457
99.1982688227386
99.3439490452281
98.9418902680759
98.5747151610665
98.5480035166372
99.1400932210104
99.2051879922224
98.6668729571863
98.4055791617654
99.0615791836476
98.9029578578305
98.6592552030906
98.7964120612649
98.8797632238307
98.8447215770768
98.6608834140962
98.0827994529147
98.5050728230687
98.8936746108778
98.9749741131232
98.7160248189094
98.3064818981925
98.8158133232126
98.7472340196664
98.5791371480495
98.6664738972604
98.6321099816442
98.9430594849286
98.9455409103105
98.7909262958268
98.8362745919658
98.7594401445677
98.6875061635819
98.7750102046501
98.8931211042276
98.8518925337376
98.6489936901386
98.5006716336518
98.7497366620963
98.8162141144205
98.7939756222648
98.2166025940836
98.3311304939072
99.2343525908379
98.983227741733
98.5975102718076
98.2095190789798
98.6364074906591
99.0228014684222
98.8333858102544
98.6647134177571
98.4410870020458
98.5952269295421
98.9999975982456
98.9743222840105
98.4706282500935
98.7976318947417
99.2442308506248
98.8102914400178
98.7803914252182
98.7484432945586
98.889353067216
99.0489719790255
98.811674361509
98.596474698768
98.8472915962913
99.1229464547216
98.9567394512213
98.7192794376219
98.5778578294203
99.2370824610338
99.1254832276338
98.9765381856233
99.0112235499912
98.7622600687437
98.9779597662278
99.2097012936625
99.0670978691973
98.9251449866354
98.8468699621114
99.1841632700633
99.2769849228881
99.1455346969281
99.1261990331211
99.1057588518129
99.0425908838705
99.2785029693456
99.3559792242244
99.2548837063984
99.3500963569699
99.3055500538251
99.2526626803049
99.3672229586566
99.3658556592944
99.2543335266986
99.3858865149826
99.4684905138818
99.4421673248521
99.4883653827162
99.461880379629
99.3929926630194
99.4908005953211
99.6138476763279
99.5810817803588
99.5528612066716
99.5176588484509
99.4923147982804
99.51417110415
99.5239126887884
99.537082934136
99.5494692411716
99.5057851845114
99.4657095684357
99.4509094544072
99.4205048072872
99.3814272540706
99.3603309551998
99.2953105270133
99.2388542189708
99.2090311811865
99.1936786454522
99.1720382329815
99.1319656163765
99.0942483844551
99.0601317159312
98.9813433851233
98.8569581142232
98.739874848441
98.6741497652655
98.5675584046723
98.4429483586943
98.318685066887
98.1217710872191
97.7955473916213
97.4256282632628
97.0808415217402
96.7168246158397
96.3429251100294
96.0059281576739
95.6705362455225
95.3402836995411
95.0281968201879
94.6959128337144
94.3069029004597
93.8072329720695
93.1769705205274
92.4412061348294
91.6790333019614
91.2465508999591
91.3538182534902
91.4532597559643
91.0727571984062
90.4599803462774
89.8710110627463
89.2990883662112
88.7228885427068
88.1054813610287
87.4320286070366
86.7163933663968
85.8315736376143
84.8271190834964
84.0556125488205
83.62140113885
83.2235338252364
82.660125317732
82.0322572215145
81.4309665766807
80.8937766303061
80.456451288622
80.1240834984879
79.8163802674154
79.5341228166009
79.2966294368641
78.9158510830172
78.206871883353
77.2319325424016
76.1762653337526
75.1483689066748
74.2060606806116
73.3091542952712
72.3935446433781
71.5002489683656
70.8163764236834
70.6612469181755
71.2446390115412
72.2924993284975
73.1165790414487
73.2563018249688
72.8288307576669
72.3484634485229
72.4440486082214
73.3024814262419
74.5787350455495
75.9198361933266
77.1551565455023
78.2360542728938
79.1956624352489
80.0499021471186
80.8119264610557
81.4812022815204
82.05602504885
82.537835567032
82.9515743896318
83.3450197276286
83.6556006038999
83.8197008959795
83.877371448049
83.842598971177
83.7718966043164
83.8288651263936
83.9893554603111
84.0556677593606
83.9568384403474
83.6476598544768
83.1642925511699
82.9453803802262
83.4072523469716
84.362772846399
85.3838105241222
86.2103789207223
86.8847558225184
87.5146836898573
88.0201359116393
88.373415488618
88.6725076526049
89.0145743874826
89.5134764525641
90.1232017376086
90.6703356793265
91.1793737296895
91.6529181103731
92.0471161989778
92.4501069544227
92.944230392451
93.3764167377294
93.7310277693792
94.1295502373866
94.4508066230123
94.6082844794011
94.6219226225289
94.6149742102963
94.4954737713625
93.9957450006784
92.7577883308443
90.6247281828849
88.2176113877698
86.6103119846558
86.380725267999
86.6547214010782
86.3412477931726
85.5109496037113
84.5791611482906
84.1541798584692
84.493045912263
85.2290345630049
85.9514868549672
86.5214380810708
86.9241826771283
87.2810487553941
87.7605297004015
88.2073314701754
88.6377684769347
88.9726549259647
89.1312468248147
89.243865529013
89.5246508389725
90.0199974914036
90.4044544002532
90.5742026003003
90.7982292823668
90.9989300811121
90.6375955586497
89.7544430491468
88.2173975805818
86.8365638520752
87.0289125140437
88.1960074968992
89.3677977587425
90.0290018359458
90.0994642275318
90.1962235303633
91.1558720007639
91.5409125535538
91.1784848763335
91.2723630126427
91.6988580816708
91.7401833593237
