900
4001.38730172967
648.873616496703
1
128
8
99.4547231721069
99.5023446965819
99.5938276372373
99.4768891357311
99.3683457198962
99.4300541519896
99.4715443182748
99.46386995556
99.4454664444761
99.4954836873928
99.5008386059673
99.4456566923159
99.494266758052
99.5355175556801
99.4821028372101
99.5398544917671
99.6474481181482
99.5554464753554
99.4277001671498
99.4652151242325
99.5617496284079
99.5444707577354
99.5323688535273
99.5375720396285
99.4665202027927
99.3794855082654
99.4521082975288
99.5746729483137
99.5890582700815
99.5669639077749
99.5650697041246
99.5408129789277
99.622083696701
99.6119695568029
99.4781561044609
99.3862703977639
99.5100850774038
99.6860946944654
99.5542584034157
99.4024771743458
99.5594640038071
99.6212863993117
99.5717400690253
99.4073719732552
99.4793364639247
99.6790551957204
99.6367156531836
99.4624472048111
99.4417213472893
99.5505180727656
99.6456337931879
99.5864079867177
99.3858160517398
99.3544203986508
99.5821912871276
99.6391683927575
99.5970659909015
99.5516747704112
99.500265397877
99.4866105147605
99.4637239334892
99.4690571194372
99.4521686898563
99.4795961465254
99.5543169060743
99.5029662541527
99.4674815614058
99.4132651378754
99.5493240553847
99.7639948375025
99.6294975870538
99.5316965216836
99.7114220961266
99.6473376761148
99.3439900671485
99.4198921514788
99.4928984192944
99.4469064748083
99.4763810930152
99.2451654783469
98.9656457546714
98.7171989807592
98.484500570109
98.5902702045411
98.9825105360735
99.059340758978
99.0148720316748
99.043997024916
99.0558445409371
99.1479406237372
99.3045407873977
99.2615989447742
98.9632874481172
98.8595627441807
99.0543023216759
99.1535908862205
99.1608852449194
99.1804600989563
99.1139625020889
99.0010816321873
99.0208703701729
98.7634521255867
98.6590801020513
98.9354701640241
99.0270229399662
99.2341984168088
99.255330027273
99.1430906947157
99.2146613997711
99.3710520682124
99.4665446514621
99.4908714097965
99.3923853470158
99.4855823420187
99.6032089637313
99.4454219744151
99.4225725838925
99.5784527044878
99.5195012650283
99.5749723519029
99.4436971037333
99.3281540855203
99.5998199000615
99.8174543157411
99.7357860400245
99.7334115298434
99.6181695863546
99.3791241139114
99.4860729282923
99.5653395114327
99.6231860638571
99.7074660341067
99.7704136964284
99.6109482472918
99.6414472759225
99.7969979990408
99.6219230966676
99.5651245288018
99.5224842215953
99.4344987824563
99.5849460200369
99.7533696385009
99.775277404514
99.7342900992543
99.8334640582334
99.8683587866478
99.6029744790855
99.4018339670375
99.5634837322545
99.538818142912
99.5478055807899
99.5916722625488
99.6895576036984
99.7370055440582
99.4090565101172
99.5504703144764
99.7380116594751
99.608457355102
99.6495147946421
99.7129665643435
99.7031925987462
99.6535712954853
99.5668058030717
99.4925150457718
99.6034749901429
99.6827053807274
99.6679251499921
99.6605968333009
99.5456529779185
99.550809470528
99.628988191956
99.5075599743492
99.6486551871232
99.8246415755574
99.7783452004946
99.6396681928686
99.6856963771897
99.5937533495414
99.6250674910821
99.6431736229954
99.5749657787274
99.6942181380146
99.659513136932
99.603676380169
99.5556495061547
99.6558303778989
99.7653233821918
99.5722469872702
99.424282595119
99.5259083354347
99.5710427490784
99.4847281298812
99.4250987661862
99.5743821093198
99.721169107167
99.6934614570734
99.5897934462359
99.5236398926842
99.4358335107755
99.4148253549083
99.6003097597853
99.6692535493433
99.5214595605457
99.4971569520971
99.6693146033106
99.6125163660403
99.4377791685707
99.4728401547413
99.4503127897643
99.4147876791702
99.4700350734338
99.6013719361341
99.5516685308473
99.4936330459739
99.499661591081
99.4931933972019
99.5073994670317
99.5237094934129
99.5771647249275
99.6350287329884
99.5972521084154
99.5753695080753
99.5319066007866
99.5097666936913
99.5628417704383
99.656193756121
99.7298913237464
99.7258561101497
99.6081932257017
99.5312856646511
99.6713775614915
99.7494265111776
99.5996174438802
99.4987017414994
99.5441546406345
99.6889486486304
99.7211046596438
99.5922682144707
99.5690902860079
99.5928276461314
99.5581700782198
99.5722613698389
99.6741925087612
99.7055730798289
99.6543285495657
99.6344933732494
99.7022587798706
99.6342681114826
99.4689484540886
99.5432022676942
99.6617925318495
99.7640075414004
99.7712721585962
99.6876709741201
99.7185702337399
99.6967585507988
99.6871848097107
99.719911881043
99.5821383622658
99.6072780875915
99.6762271554869
99.5530057514213
99.4888432194721
99.5539909415221
99.6109822136903
99.6460278021992
99.6441476717363
99.5944543594147
99.5688727090396
99.5500724355565
99.5878754716961
99.7210767870058
99.7336480064172
99.6081662567828
99.6199018771444
99.7183549040631
99.6834373441107
99.5813858932108
99.5902596299027
99.7532074361615
99.7316905740757
99.5988659034252
99.6715487441868
99.709105814886
99.6276090930917
99.6524808420368
99.7276260519075
99.7317024796327
99.7935879131145
99.8563047596768
99.801290731611
99.7264619913454
99.7131174367799
99.799456688891
99.8168049478753
99.7285334107944
99.675907714478
99.6406913361887
99.7091045823432
99.7478464087467
99.6586910849596
99.60248504332
99.6197271448882
99.6788874693591
99.7352385891484
99.7343164432087
99.679831610417
99.6606394387484
99.7027523203456
99.7160377398278
99.6653637081446
99.622889251662
99.6431596520936
99.6279134781162
99.6095263846207
99.6400161152197
99.6210960668784
99.6229729289069
99.7243976538196
99.7166928053144
99.55190968054
99.4748471279023
99.5363159450466
99.6316614115622
99.6996866940667
99.6932756777864
99.6457117458217
99.5975769590266
99.6169014634503
99.6521757823009
99.6440963596864
99.6689031592653
99.7060332432707
99.6743810008342
99.6240010681778
99.6629169985111
99.7360225311475
99.6688992667491
99.6107435532798
99.6861392384477
99.7015492812857
99.6558870498824
99.6838202159441
99.681571437684
99.6561818603497
99.6882928942527
99.6800596658179
99.6553931150239
99.678123871616
99.6992656743866
99.6854655591435
99.6635880179626
99.6610980240726
99.6276206326674
99.5646891383754
99.586687835723
99.6518953383551
99.6468115043859
99.6363918169098
99.6270935705711
99.6227557908728
99.6275753726178
99.6103632716871
99.6164720958461
99.6070784477028
99.5895187920929
99.6237318068847
99.6858114801268
99.6835932686045
99.6043459513026
99.6145235986467
99.6491172524027
99.6552852556857
99.7167361947478
99.723594576303
99.708946907768
99.7261987504924
99.6872270129328
99.6537873050443
99.6790266015063
99.7079188681631
99.7846916566009
99.8038322142128
99.692443169841
99.6742180616524
99.7324875416006
99.7309100009675
99.7144743458619
99.7620982911658
99.8234039252081
99.8081061567551
99.7744643437708
99.823533231571
99.8178043459402
99.7431647395329
99.7295588044908
99.8022698820633
99.8533065751563
99.8043139681285
99.8261319187376
99.768469776104
99.6491059068777
99.677674604545
99.7500608717432
99.8569121495273
99.8938467385566
99.7232587764506
99.6929044919093
99.8034426164043
99.87120820145
99.7789947252106
99.601604899448
99.6354642611175
99.8749323073372
99.9469781442381
99.8334625934243
99.764270787487
99.6756741924407
99.6561999014363
99.7139324120251
99.7998427311609
99.8987023078365
99.9260549614523
99.9086325781937
99.8620395841814
99.8398386016292
99.8631674055897
99.8386162628838
99.7882536312944
99.8309157700593
99.8711892249736
99.8410317863965
99.8355552607046
99.7939754622686
99.658783272196
99.6446382990662
99.6937050389503
99.5161346352571
99.417980717312
99.5117381591664
99.5381901471975
99.5812775388621
99.664562478448
99.6091350636311
99.4919752481217
99.5026404070251
99.6210290677513
99.6144633652224
99.6063418433481
99.5473614129112
99.5169915367944
99.6541306787096
99.7064750435149
99.7300711863762
99.8060660707425
99.7929665313454
99.7147683628203
99.6604692687755
99.7553391356525
99.8972269677969
99.8191828463112
99.7002665312999
99.7985668173398
99.9548870835872
100.028895129302
100.028745689675
99.9974451068945
100.017058844448
100.104902520069
100.241530879863
100.293817449139
100.185453207536
100.198813335848
100.314331185735
100.2894986645
100.099900317296
100.241971706503
100.296253934277
100.280699553783
100.480716902415
100.476599418662
100.305429354528
100.530062082942
100.560979423805
100.426839769548
100.807694398533
101.006707451001
100.950150992618
100.991989795847
100.743912468752
100.772354911346
101.128448022168
101.258142364807
101.40151725934
101.520284592061
101.29285842976
100.754555370222
100.369201372428
100.243290175069
100.352273894937
100.532144482898
100.492639631402
100.437026248811
100.341211902037
100.269067529163
100.061183835672
100.07527271915
100.219705419132
100.136262860001
100.133657865174
100.344980125744
100.401485225872
100.222018754035
100.087784568081
100.112301706489
100.30427805076
100.34772595429
100.287552338681
100.172519260674
100.265786464292
100.255198420598
100.195976592006
100.230056043485
100.324300805779
100.482026129885
100.603080427661
100.488240749845
100.673080836363
100.747640980608
100.755284413598
100.716060445306
100.515863630125
100.706804151697
100.928506814466
100.68685885872
100.518218258266
100.665086013782
100.536693932768
100.327859161709
100.096281020371
100.167237703798
100.526907265317
100.490489110477
99.9529129681381
100.074648468873
100.694319192612
100.536632016434
100.20954447708
100.224467406586
100.222700294084
100.308492356988
100.331715883925
100.063083667256
99.7689593193696
99.9374287441247
100.139778746986
100.049658588876
99.844418847416
99.8220881969665
99.8251715037051
99.7326652211418
99.8160470608695
99.893084372936
99.7949376474562
99.7754135211186
99.805584377435
99.8100010108754
99.8195684628937
99.7670427864891
99.6725596942707
99.6731481286663
99.7135866880465
99.7164299734009
99.6901321013086
99.6657810179223
99.7625718907599
99.7834164277485
99.7044732718921
99.7044643967653
99.7075111010541
99.6414259028971
99.683321231982
99.6834262738848
99.6501356317816
99.7035264550281
99.7451890346053
99.7074945604312
99.6758053424953
99.6561844553047
99.6504134019065
99.6807562771868
99.6757593510732
99.64539008329
99.6677251592203
99.6532263728179
99.6254204013955
99.6590007943689
99.6444363832051
99.6950767145524
99.7650363483704
99.7039544700725
99.6827888125652
99.7591263957758
99.7870678155604
99.8033843601998
99.8421611132311
99.8446545345585
99.7917024885022
99.7627477260068
99.7935339494
99.7823843136912
99.7262924044575
99.6425919845821
99.7803940291419
99.8123093848343
99.7331266076109
99.6935424372696
99.5963444764966
99.6849145131516
99.7799918499668
99.6935787398978
99.5987483841532
99.7263900965724
99.700149512469
99.6254153949299
99.6498697823829
99.6129870043844
99.5955217721514
99.5801162093745
99.4431450463698
99.5732780960435
99.7073569667827
99.7435199629424
99.6218921525319
99.5377540146767
99.6851338777756
99.6155035931349
99.5040938380337
99.590066703803
99.5733981520972
99.5972280360312
99.635004659788
99.6108921948047
99.6060561866499
99.578939351541
99.634577134944
99.6668820669808
99.5945796608845
99.5910426211897
99.6205471336695
99.6174837059069
99.658455001171
99.6372352696664
99.6393505899637
99.5333161365354
99.5375742679539
99.73966899916
99.6884261677668
99.5718925238538
99.4851664505888
99.5655067042722
99.6500046824259
99.6011544817087
99.5600523391822
99.509225258808
99.5280504641503
99.6755878968141
99.7446407593152
99.6310201698568
99.6600857462729
99.7287003620274
99.6240030883466
99.6343383925246
99.6297579772761
99.6867968010754
99.7361389227286
99.6476958124712
99.5847736737247
99.6587960580848
99.7479680951764
99.7483714731024
99.7214796148531
99.6261278984695
99.7430082034944
99.7435068617165
99.7457356873489
99.7679896431744
99.6632028956307
99.6964662912837
99.7597344230384
99.7763683509334
99.8028126928982
99.7432735099185
99.790932834726
99.8006479891206
99.7698829728157
99.7733252643988
99.7262797870801
99.7048463088591
99.8023407503058
99.8540254260932
99.8389351072879
99.8611996679903
99.8511576786256
99.8311282567843
99.8699793914388
99.8671960655785
99.83726990563
99.884804452826
99.8998401639148
99.8424332073238
99.8547807336118
99.8879778943512
99.8621626813165
99.8683997662968
99.8965904631422
99.8714500041562
99.8870123203195
99.8900491793258
99.8601827458774
99.8309874907721
99.8302964241386
99.8304615233621
99.8128167473015
99.8084228988151
99.8067414961003
99.7669575056646
99.7401710347931
99.7232909807881
99.6708147764243
99.6296511644224
99.5982070509739
99.5814702589458
99.5802876635261
99.5411449811888
99.4998748390588
99.4864830571976
99.4272399471272
99.3505321796414
99.2848001794249
99.2225004185033
99.1549957075041
99.0463706095128
98.9298731584928
98.7908765518335
98.5160811810849
98.17183707291
97.8156567036551
97.412877100908
97.038385011306
96.6981322259363
96.4148128959082
96.1831330536156
95.9646268960047
95.818907021823
95.7142254926261
95.6049547710795
95.4465294441651
95.173480148555
94.8081419413769
94.3771439622174
94.0842203863198
94.159365545704
94.2760471933516
94.0765460650416
93.6545674333765
93.2237314259212
92.8006261308596
92.3191784419934
91.7665811011316
91.1486429628879
90.4057523691872
89.4531296739522
88.3843772038212
87.5040886789228
86.9792072078188
86.5230293635881
85.9293888447442
85.3339219580102
84.8221350123386
84.3893959670335
84.0455504157593
83.8431217833401
83.7711764522981
83.8821288106332
84.1463276766632
84.3154960202656
84.2517709408028
84.0136646797192
83.7170338896011
83.4523536020353
83.1735215203314
82.7825095610232
82.256735856627
81.6758170162076
81.2418822060153
81.4117655133716
82.5056129412251
84.0890034197718
85.2633990375802
85.5106828125493
85.0899218885406
84.7807086022293
85.2878806512487
86.6166427010614
88.2626877726104
89.8191690728801
91.0921931757129
92.0414030554255
92.7863900906595
93.4348012236407
93.9736465926701
94.4096504199536
94.7630050896882
95.0226341588125
95.2359282867302
95.4171997201938
95.5046801178907
95.4529891270929
95.2278886477144
94.9465996926649
94.8049964110249
94.8246849397008
94.8381758278937
94.7336113882892
94.5077848050752
94.1308699786511
93.6459547229124
93.4701898236961
94.0529569789436
94.9940598139667
95.7499689347974
96.3259075732918
96.7047017866753
96.9292512118726
97.1638648438671
97.3512684928054
97.3880080836083
97.425560708149
97.5735638290462
97.7709490728872
97.9481348394262
98.0603616303774
98.1690522695684
98.2516303400387
98.3285524749923
98.3476305376089
98.2886276169842
98.3540309615501
98.4452677369208
98.5071915392884
98.5090908904251
98.3916160866931
98.2184546564288
98.0357017736357
97.7749374732697
96.9692118193223
95.3452636921507
93.589905356107
92.8228148228802
93.3236113144167
94.2200037455394
94.4083481603751
93.6989419981353
93.2126977271856
93.776888796903
94.8594780614357
95.754375090326
96.3042097713384
96.6143951214028
96.7678337812494
96.8760528974063
97.0515842383633
97.3304766786047
97.4112518792678
97.5577600954814
97.6990242022014
97.5772215177334
97.6704202321305
97.7961296563042
97.6608119949221
97.5175611035146
97.4993916668746
97.5308187174597
97.3018554835666
96.5082758944435
95.3362655869782
95.0201477712524
95.7949083874281
96.5193300177652
96.535066261162
96.2731711965414
96.7705604631811
97.3962737202188
97.3134570299068
97.4139273091595
97.6336158220506
96.8577416619474
96.1400850400653
97.1361221939952
