900
4001.38730172967
648.873616496703
1
128
8
99.249484516432
99.2836345427793
99.3673236068307
99.2944601762014
99.2265093497701
99.2885174016951
99.3120256339745
99.216699650782
99.1875442623862
99.2318917702575
99.3230517372607
99.3272539829119
99.2866005890031
99.3140444735232
99.3781478834598
99.3842627537619
99.3174381682075
99.3335854265766
99.2749894957946
99.1336749659659
99.2410728739098
99.3701119430324
99.2756565593371
99.1453445373217
99.2654400641501
99.4087232798888
99.3664012347557
99.2128036406648
99.2335071963111
99.3166298552016
99.3966822248453
99.4367857524546
99.2453679174932
99.1610212444057
99.2781281169658
99.3290254680949
99.3202864627279
99.2155444335714
99.3683661699629
99.5836172318127
99.2359796846344
99.0454445933155
99.1891016128556
99.4627708365619
99.3925577441863
99.1747792159206
99.1099457136082
99.3155266639121
99.4354442304066
99.245704190849
99.1163611665501
99.270958835625
99.4574271175802
99.4124541417725
99.2477264148452
99.1643637747206
99.1407441721849
99.1722302916986
99.2810884040117
99.3278247466985
99.2780385995995
99.3505213910907
99.3805632907034
99.3369500774212
99.3107879076051
99.2228524345414
99.3677063672168
99.6384565479585
99.5400211301701
99.2183846268912
99.307213048507
99.3128629602347
99.0790803763909
99.0045500216616
98.963497021838
98.9802212638699
98.9886284839613
98.689290226884
98.0518829502396
97.5645757804443
96.6960503835298
95.7402375964814
95.4978614102326
95.6671479596339
95.8679477393499
96.3043460736297
96.6437636303902
96.7328315723205
96.779798588583
96.5430059806348
96.3621810284757
96.4187134276489
96.4018802067056
96.5434589961848
96.5617550245802
96.3214032240388
96.2317827673623
96.2932751083286
96.5364364330172
96.5717017378024
95.8729322091668
95.0755198924282
94.8869630179658
95.4642073903241
96.1681414644401
96.53969354004
96.7090234739646
96.9706983787061
97.0995321933413
97.1049864004468
97.1993304880958
97.2305564541806
97.209821865433
97.288482581815
97.3503764166277
97.5093660599744
97.5036828026311
97.3402255854462
97.469015811237
97.5784796579514
97.4362517394864
97.4976519673228
97.3937500549829
97.1906697340054
97.3906401693076
97.6542702920995
97.9313373620643
98.1184284386736
97.7371156581129
97.4465477192168
97.5217772009688
97.5223457849191
97.457341282202
97.4827967519927
97.4167261608412
97.2911855113718
97.2409259981452
97.4130543275433
97.6654803398696
97.6921056250738
97.5034777143207
97.4984313185914
97.5744812290504
97.4820310620794
97.3057121523306
97.298931249666
97.466260876964
97.6451319794635
97.8088191248849
97.67811103563
97.3881828129672
97.5163736028343
97.5886061370457
97.3345404436067
97.0170697649741
97.0589318296084
97.2856609639124
97.3689784985699
97.3643090520974
97.2067018245888
97.209284323637
97.4736757626837
97.5724828153098
97.3204058364763
97.1227200908582
97.1479874468038
97.3439596654083
97.3863069562582
97.3275791656937
97.4729487479266
97.3324405246641
97.0392023345978
97.0539672525269
97.3160297869066
97.3509788950391
97.2245087985734
97.2777012595246
97.3426791006098
97.3448649729073
97.3355842611134
97.270937338601
97.2014491800057
97.180780741671
97.294728520759
97.3767747249067
97.3654110557064
97.2924522927217
97.1897812945348
97.3009403094793
97.3336557201137
97.2874347322109
97.1868495713439
97.0638551915244
97.2481503229646
97.3081149584377
97.2842782865519
97.2788669130663
97.3502959828515
97.4215562887231
97.3400697807732
97.3037940919565
97.2947230969036
97.1242484728086
96.9640118074439
96.9839815966273
97.0841885540657
96.991384090402
97.0240342696224
97.1927465169599
97.1106812762907
97.0475485840421
97.0728543987343
97.1933046843915
97.1597398818846
96.9722733636637
97.0363186936815
97.1120392131428
97.0702315592359
97.0516259701832
97.0403502757072
96.9855195948287
97.0659222121953
97.1099873876078
97.1206773975904
97.0858171043932
96.9981354180934
97.0564035976645
97.1781388780584
97.309123048626
97.3283916703089
97.2607359743417
97.2207362367
97.152833481417
97.1031457585661
97.2208749144871
97.2727383802063
97.1813060493873
97.347995779655
97.3669815385938
97.1295289489183
97.2752750834016
97.3601262370233
97.3020479595329
97.3829097055007
97.3382959906532
97.2688447102117
97.3280531455752
97.3968214346953
97.3519524094448
97.2025989043672
97.3515992078766
97.4916451411597
97.477962303062
97.5404694384737
97.4548178002943
97.416516767254
97.4936935285309
97.5050989314399
97.4795775853308
97.5912192935373
97.6583841485784
97.6591357014765
97.5784639407713
97.4680241196851
97.5359080631779
97.612519014651
97.6109593124871
97.5422346811675
97.5501576025791
97.7025713894456
97.7035187580364
97.5827718906529
97.5700849920427
97.6243737924615
97.6900345933548
97.7936619479904
97.8205808373077
97.8105073311459
97.824634474388
97.8665957225745
97.8592632968854
97.8064747439101
97.8144991000667
97.8453206482359
97.9462341890558
97.9906807459165
97.9601748342081
98.1072120030584
98.3131432718999
98.4499206336375
98.5486626722738
98.5622656701229
98.4681090369495
98.3320104694996
98.2559746277136
98.1703550883696
98.1241395851893
98.1667365035102
98.183042301307
98.1638440884554
98.1317227321358
98.1204973429001
98.0636825506018
98.0587444494191
98.1047084520735
98.1588414885441
98.2214476851858
98.2911580999239
98.4673311748096
98.5475496696998
98.4102067338123
98.2993862428013
98.259467226519
98.2468876025743
98.2342122920328
98.1770219931867
98.1445093779382
98.1444309900984
98.137881694871
98.2202273596857
98.2521795996861
98.1998857617178
98.2023670828723
98.1728934826962
98.1341239361375
98.1687411954841
98.2017619721235
98.1989002837544
98.2080058716224
98.2261659654349
98.2302475024584
98.2470630045523
98.2468031290911
98.2405751802642
98.2471146884041
98.2213619544468
98.2080023218592
98.243990084785
98.2574410896851
98.2602709593962
98.2753073332326
98.2572945188302
98.2293933492848
98.1826141755999
98.1670046594306
98.2520703836298
98.2836048694293
98.2529448689377
98.2580527297351
98.2783878970104
98.3222086471202
98.3332284628486
98.2712399055552
98.2440728103524
98.3125013342899
98.3487363640008
98.3248079488581
98.316717737363
98.3308373836626
98.3610963617871
98.3804806241974
98.3980817808354
98.4139113233851
98.3969089857727
98.4175736498495
98.4738197749619
98.4506559876912
98.3953887742468
98.3987055261197
98.4025599740005
98.4062678731505
98.4351295356381
98.4217805349867
98.4241539871424
98.4300425270254
98.4017257166263
98.4141094488501
98.4523109194272
98.4179206211026
98.3716350741282
98.4460953901993
98.5402963645122
98.4953013649039
98.4097932730641
98.3383195255117
98.3239268486806
98.4448369714297
98.5089893877035
98.4521672958084
98.4755142366352
98.5311162862955
98.4833360869093
98.4372099862492
98.4553844027963
98.3995603418822
98.3758069859312
98.5583628097128
98.6428450173028
98.4425201910821
98.3392217323863
98.4879688985938
98.4827419229175
98.4042821602722
98.4455764012554
98.4950345985298
98.5393236774258
98.5708966536991
98.5059072754207
98.400330413182
98.4315230870669
98.4642391111283
98.4277727974848
98.4789726206204
98.5621072785598
98.5169470168219
98.4480303730157
98.5529304350545
98.5693686561197
98.477675334061
98.5224496747958
98.5940369595926
98.5177441645811
98.3889299663948
98.5068628936893
98.639490792331
98.4798791839628
98.4048437990054
98.4750143342654
98.5716686929588
98.5972961468764
98.4854564140307
98.4443869742095
98.4944610523492
98.5345023658638
98.5607409655675
98.4530295166593
98.3093343154485
98.2471491462084
98.1160161850819
97.8965280229462
97.8151623020066
97.8226285159143
97.8787968206508
98.0420473476983
98.1736737744705
98.15614824303
98.0388989197565
98.0195744848505
98.0734870216437
98.1118308099915
98.1714355482215
98.3189543891222
98.3640098740459
98.2899027547181
98.3615720893062
98.5189929433375
98.5796382694873
98.5635512357139
98.601627661512
98.6875220692171
98.6790718153986
98.6908225181898
98.7115551086853
98.7673688326664
98.8354338385108
98.7751953621211
98.6669512719714
98.570845524989
98.5638358079052
98.6616941040403
98.7811669188996
98.831392821521
98.806664602544
98.628370477582
98.4531267451258
98.6839186431918
98.8819410035337
98.6992957970172
98.6381668819143
98.6475310221147
98.585761651315
98.7236032447014
98.7432428326708
98.6330010026308
98.5734450262949
98.7600518869863
98.773473456217
98.8179343135475
99.0531199982315
98.9605230353101
98.4820906805837
98.5098733599074
98.4695736481844
98.433110476964
98.583768233345
98.2865445677809
98.2464254691818
98.3215467616505
98.3349733963406
98.329747798411
98.4468165513162
98.6072756775051
98.6346822147088
98.7701329605102
98.8486883056009
98.8916187716049
98.8283868225772
98.7356064084704
98.7942599179517
98.8387661038064
98.6951980316977
98.6449924996506
98.7810037767084
98.8777932971444
98.8666692231177
98.8413260952257
98.842349597474
98.8494079709221
99.0181614981083
99.0075170130858
98.8122998546575
98.787434792808
98.9252264593143
99.1227300396214
99.2499463344187
98.8464323450342
98.5268295697269
98.9780504935764
98.9102051138164
98.6348020994924
98.8028012289171
98.9910420473532
99.0633673136775
98.9412339726771
98.6784341581928
98.5151242954551
98.3507224414883
98.4667236111589
98.5909668623431
98.7740723981531
98.9145815547547
98.6305485038038
98.5618202999613
98.8019952274251
99.1010594911266
99.0795852324773
98.4672901003153
98.5609636931109
98.5431606066924
98.3083742748837
98.5648062656871
98.6451918643476
98.5353985185561
98.5210837162453
98.511953972973
98.5537808421563
98.5586387315574
98.5612667177356
98.6045071141089
98.5968446424225
98.5852408147302
98.6624939807347
98.6565478881748
98.6352619694635
98.6805585357947
98.7138230242503
98.5498181618644
98.5589982679106
98.6491261125187
98.6004939780078
98.6659657956497
98.7961193084542
98.6645396819788
98.5461339481422
98.6432441413115
98.6864952045487
98.6742039266299
98.7742510962652
98.857520304656
98.7175759374062
98.679212636653
98.788907007589
98.8072773315675
98.7576643366357
98.6766913241781
98.7060260712217
98.7318102938251
98.6653824549816
98.6698670552384
98.7529754852121
98.7746131346575
98.8260294954622
98.8301461711593
98.6347100828507
98.6489223729554
98.7249690410155
98.7308963393905
98.8559293298561
98.7729058086215
98.6490493805161
98.7455389031654
98.7370035218825
98.6858791247094
98.7795798097652
98.6551608458465
98.4761425883258
98.5158777271094
98.6312988647713
98.5700483254013
98.3558597551564
98.4022329749601
98.5564772957251
98.6838523992309
98.3069766206451
98.235692129333
98.4651146410169
98.5259375562025
98.5001436888612
98.1743498630703
98.0219021742138
98.3027397311713
98.5364299282761
98.0715673030401
98.0392700088968
98.1553700292303
98.0045854148884
97.8160278278293
97.7332495607108
97.7667810905014
98.1128296248579
97.8274286495555
97.4913709499894
97.4402848039846
97.5689545021001
97.790136748492
97.4885496674675
97.474404070073
97.5381691503257
97.4987790196007
97.6066955405704
97.5699942583689
97.5685500872281
97.7031237868365
97.7799020055872
97.8901501893292
97.9519302047102
97.9851122869289
98.0026185857908
98.0845535281193
98.2659680843552
98.3674914595919
98.2135338719539
98.2395824106533
98.3099917825658
98.6570352341881
98.6448103013624
98.0802463653242
98.2140107458786
98.479345565061
98.7630324326992
98.5229864940643
98.1872282554225
98.28503856108
98.4306958200532
98.5942034650626
98.4664207804701
98.2011319654859
98.2438439459337
98.5925131890912
98.3637308789128
98.055999168886
98.32435965804
98.3271242948776
98.3363186843552
98.2689727446942
98.1723467402269
98.2937777943717
98.421749444679
98.2606971112948
98.0448420734496
98.1765061716684
98.3565282002589
98.3427129692815
97.8877898573662
97.9398032845953
98.0030635061775
97.9573505122722
98.106341315783
97.993783417029
97.8174494843671
97.9010729306135
98.0271795598417
98.0543544788772
97.8152235831976
97.8416039819402
97.9936704899631
97.9698030634903
98.0054725809783
98.1130259865763
98.0389278522221
98.049456354594
98.1168645178907
98.0618240991093
98.1596220086805
98.2565346477013
98.1871065494173
98.193721957496
98.2825414756021
98.2020446951427
98.1146708024919
98.123047968222
98.1338749237699
98.16274732792
98.1758660971442
98.0596193026398
97.9780224785538
98.0480239399656
98.0762668873022
98.0963623450304
98.1142568135858
98.0694398879861
98.0380084727032
98.0621252059824
98.0844839755526
98.0760339661797
98.0604204705007
98.0786672242374
98.0852165156785
98.0404015195576
98.0192686227629
98.0107206442527
97.9779556474783
97.9632112548053
97.9540753659659
97.9164939141633
97.8796368624851
97.8532510595783
97.7779358785219
97.7078778531628
97.6868079405537
97.6473496264251
97.5741089376206
97.5248835655761
97.4746829127315
97.3794187019301
97.2028296414553
97.0101432251775
96.7920319047335
96.5278387762486
96.2443772825917
95.9551447895666
95.6628109270158
95.380877677367
95.1018550102406
94.7829427570959
94.4095078872656
93.987562797597
93.4698247781643
92.8611767471772
92.1898985712142
91.504309215766
91.0918963322097
91.1114329681505
91.124843430643
90.7187573568452
90.1105105867054
89.5572047194498
89.0520270905956
88.5006966508837
87.8194505269442
86.9860255087897
85.9477715039734
84.6039784598832
83.0716010280159
81.9738721782055
81.7045123233682
81.7009360329783
81.3942414264563
80.8647513559942
80.2807623721754
79.7570491106433
79.3104335928878
78.8716263377299
78.361822777555
77.7525016276309
77.0018415560625
76.0303960229805
74.805775069858
73.2886322107297
71.580700841374
69.872886385015
68.2033413754986
66.5288052098435
64.8083697349824
63.0710804755638
61.416819278086
60.1343920551996
59.7963311321991
60.5550763721459
61.6494030271063
62.1019163552648
61.4833039032294
60.2380579726938
59.3551266661019
59.4271331535727
60.2952331680419
61.6183092687256
63.1005887449123
64.5479985806542
65.9694476775706
67.4074344445295
68.8071979580666
70.1336415962288
71.3623850540177
72.4344777314323
73.3765633670689
74.1861045920003
74.7691292854866
75.0701229445813
75.0132054692868
74.6307755714904
74.2008298851375
74.0400651587977
74.1268426810402
74.0786282106953
73.6213971656289
72.658160692221
71.251818458551
69.970372644788
69.7782407793261
70.945161659975
72.6439623986163
74.1866492733624
75.5700219029606
76.840720008961
77.8959598575237
78.7310393226149
79.3864787240665
80.0139800551573
80.7772829007048
81.6457064923321
82.54256117244
83.420202464254
84.300854238281
85.1461551670648
85.9371837408815
86.6667774796427
87.3125753057204
87.8797145067412
88.3145377271525
88.6895210058484
89.047343514961
89.3096626820425
89.4259421279251
89.4159255297369
89.1427067893654
88.1747312438199
86.2205337030592
83.7142885962197
81.8800154296751
81.2629778366396
81.3212250026106
81.252286224591
80.6751746264569
80.0724247345617
79.780112516949
79.8412723712603
80.3380151855314
80.8916466280674
81.1149672474825
81.1381919195983
81.2904165015976
81.6584027492457
82.2721050108876
83.1557968696565
83.9998979516126
84.6457763430154
85.1065602125583
85.5017235028264
86.0121603435161
86.4611971657689
86.5588008499387
86.3567762267461
85.8302877064306
84.9799561555526
83.6548107932833
81.5509657638677
80.0657800994991
79.9723074885455
80.0894307407978
80.2759390416426
80.8992187545064
81.13847379719
81.4360772546113
82.0703298646321
82.5006598334707
82.6474601399431
82.8641397090613
82.9506388232759
82.8760038903598
