900
4001.38730172967
648.873616496703
1
128
8
99.5047367785589
99.4967709132044
99.4039311579045
99.3955057203379
99.3876129703818
99.3975708101586
99.4157015276211
99.4656562058231
99.5344296515397
99.536293783954
99.4220385134548
99.3375282966711
99.4007500188337
99.5020545170448
99.4687626210126
99.4642787218726
99.4742440650293
99.415284229074
99.3273499733026
99.3226969758591
99.4492239340149
99.5056678612343
99.4991053619362
99.3998106374744
99.3812078619491
99.3205369479249
99.2718166940474
99.4043022947805
99.419485608732
99.4731247829501
99.3938897710662
99.2515172314437
99.2784651457396
99.3159891209667
99.3560166029432
99.4310811664804
99.4610699469178
99.3848722734416
99.1452532937809
99.292042981373
99.5491487707176
99.382231390113
99.2680967258344
99.2747978287777
99.3443670714131
99.4643555044829
99.4000427737601
99.3574248631676
99.4558223001495
99.4930583215515
99.3721550275743
99.2225767191519
99.3050506528777
99.5033375208032
99.5130697909697
99.4498504902838
99.3620872613174
99.3088291278434
99.3972096047814
99.4022036387415
99.3577517361304
99.2969188892418
99.3745252873612
99.3689792241566
99.3857514706429
99.3399815718735
99.2632381978719
99.3942944836652
99.3159236095838
99.3883011316737
99.4223950305109
99.280758142425
99.3082982965163
99.3858592877333
99.41275908706
99.4474190188555
99.4042681705912
99.3477693271541
99.3153061792368
99.2553768101437
99.3671214570176
99.3795330652503
99.2136478971323
99.2221620569901
99.2697385210737
99.1913191198898
99.1736234854929
99.0683999350167
99.144848157534
99.421411550748
99.2489892913188
99.0836858678501
99.1427269962006
99.2556478188748
99.4446581906794
99.4583448425154
99.3809567479299
99.2895570247782
99.1106383991182
99.0900652211882
99.3507402614678
99.3905112900491
99.3762536681789
99.4844072812746
99.4334321856357
99.3511958418878
99.3687588753614
99.3669236057913
99.2818468897443
99.2256703144828
99.3430018956687
99.6213244002199
99.6349831168169
99.6811050035918
99.5257424908542
99.351515075123
99.4099738718746
99.5893176802181
99.6019957037518
99.6842140746229
99.7756607768611
99.6698521758124
99.7226311205814
99.8288461426597
99.7722940477145
99.6343675421828
99.5967342079735
99.5313633730814
99.5553877035828
99.7897890821019
99.9145875278534
99.8597459298338
99.607052703237
99.5670822895188
99.6926317907149
99.8496843653953
99.6826753304533
99.6694850001263
99.8181037413049
99.5679638653495
99.6610250799193
99.8083190479639
99.5880142919812
99.5808276751681
99.85755277786
99.8855403273761
99.8559667128428
99.8760637928671
99.7779826792851
99.7031369750991
99.6914543846867
99.8944433935425
99.9098607903482
99.6227953531565
99.5815152339057
99.7374239475037
99.85825535998
99.7834049174275
99.6403741564273
99.6269720577245
99.7368961201155
99.8883663540392
99.8874662015716
99.8498573900386
99.8128709167178
99.6539615080097
99.7080058256642
99.8746534393407
99.9423894304264
99.8183464244025
99.7890697820057
99.8348292654422
99.7550595034638
99.6931231576459
99.4764545635421
99.5343546749093
99.8421553448465
99.7695965493643
99.67010694519
99.782660936632
99.8014792395108
99.6490186643652
99.8174503574623
99.9614930445121
99.6500284440342
99.5843638631372
99.8062933751223
99.7386847885573
99.6313214829371
99.6547625913551
99.6612825614503
99.6776161401343
99.6682349411328
99.5880175925304
99.6605447039204
99.8732388481945
99.840554081266
99.7103521890172
99.5485329813854
99.6364265960402
99.8370942037984
99.7644039632142
99.6779610432208
99.6206471907319
99.6101115881239
99.6513856232457
99.6996633527995
99.8586386094255
99.7680683805954
99.6354166092543
99.7053420012658
99.837858217412
99.8675873626763
99.7190795681861
99.549315147824
99.7180906227889
99.8188482137921
99.6565152332439
99.5835498980245
99.649547778002
99.6797631036849
99.617324590688
99.5894787081896
99.7155280036271
99.7170532689184
99.6691630127418
99.6523028612581
99.6026372324708
99.7051908688469
99.7303916666507
99.7609712913956
99.8471644698353
99.7865208386873
99.6959269870559
99.7503591573988
99.7696290539943
99.6843266202675
99.6594842957443
99.7389271277997
99.7551641152014
99.7182958115129
99.706872112632
99.6875344194712
99.6489023176657
99.6079541108994
99.6473029575529
99.7666529896473
99.7626841102887
99.7461236961261
99.7898364744697
99.7521005309239
99.740100179703
99.7323523041666
99.7123322535373
99.8000224601484
99.802182447951
99.7879208464561
99.7861772715069
99.8712231474174
99.9143653261755
99.8235766862924
99.8130506161188
99.9042540508085
99.9607141103715
100.033126840027
100.042954076853
100.040387047037
100.070576941599
100.05515814008
100.088673683758
100.228113963667
100.354258206208
100.467394959215
100.632022408902
100.793376889861
101.019632716297
101.511903798199
102.122061802544
102.67867418369
103.058564677831
103.193909945837
103.131521550411
102.95531600772
102.969726125136
103.343302860881
104.055979926555
105.234023106402
106.588415016021
107.496437666942
107.725515117242
107.200417213927
106.153684973959
105.195215071025
104.458730376147
103.800871511723
103.28849491962
102.896078000815
102.519364039462
102.228944784818
101.939542067774
101.746547738254
101.840985302721
102.034462792891
102.157962497133
102.365212575765
102.758638375586
103.441587209497
104.151286277543
104.141404581619
103.246235933117
102.131702739616
101.299522089932
100.850782798881
100.536655750229
100.168959665463
99.9569392674184
99.9056062220265
99.8418099134195
99.773220849384
99.7442721266009
99.6992127478578
99.6571566238555
99.6147425752391
99.5911436099664
99.6261135120764
99.5922327038583
99.5481761767221
99.5333961599569
99.540294751157
99.5555019440176
99.5095010037606
99.5111510862409
99.5549310519533
99.5334708532547
99.5031965312001
99.4942651635973
99.4913525249964
99.4668964172945
99.4797570180907
99.5336181179964
99.5651755737888
99.6069683769101
99.5995163212742
99.5407621694204
99.5106625503301
99.4536308246458
99.3828348720982
99.4019054656042
99.4575869989731
99.4445479101758
99.4029031733833
99.3827277114756
99.3860563944033
99.3768846576791
99.3666183503908
99.3668511582329
99.3231780008239
99.2974701020926
99.3625068522452
99.411439088595
99.3867836363523
99.3821263294081
99.3670902504482
99.3231107476728
99.3043679748707
99.3385072780854
99.373631754139
99.3335828065718
99.2842557443165
99.2910027232611
99.2823462709265
99.2763660097967
99.3237207743762
99.3680870346137
99.3199309534415
99.2145729507264
99.2460938190658
99.3273916896976
99.3025904772752
99.2232652582533
99.2113166664947
99.2465021963222
99.2325790248771
99.283569832551
99.2955715245439
99.1817979503602
99.1828340528011
99.2768918111483
99.2491445992947
99.143403334571
99.2097092417295
99.2641605904145
99.2028938170098
99.2360320289926
99.2682280675724
99.2283470108804
99.2272515195303
99.2724352595497
99.302753891067
99.2006554892427
99.1329411837771
99.2120485433922
99.1963108860622
99.1825128868411
99.2479790213051
99.2513835761822
99.2627800856824
99.2196504284446
99.1839276213018
99.157617181584
99.1676044672363
99.2509295198319
99.2443283368955
99.2096348329581
99.2244998204697
99.2172522040127
99.2075758933702
99.1966922857822
99.1508272912654
99.1129637737393
99.1909123962601
99.2677879529046
99.1826031578833
99.2043649108207
99.2602707222986
99.1664619822021
99.0905557166113
99.0817321817461
99.1623266914576
99.2254629799918
99.1976559748726
99.1721239084408
99.1783782710655
99.1658316194736
99.1679835623519
99.1639465614737
99.1739355285784
99.213675702482
99.2711028558323
99.387467049854
99.4312722503284
99.4492052011681
99.4110638274951
99.3045830539964
99.2491936580267
99.2977806157425
99.3763091390716
99.2971885564206
99.2451258716167
99.2302051409963
99.1850483371926
99.2517195165063
99.2912934419103
99.1994936499829
99.1780289337973
99.1378310950504
99.090201498934
99.1721066878967
99.1480882712715
99.1022404586592
99.2303953432179
99.2967634277105
99.1934317425468
99.1387053255613
99.2408846113555
99.3910233407177
99.2909004471496
99.0383319154995
99.0040865949531
99.1417361397814
99.2713747251469
99.2071809308915
99.1650999798363
99.2006331814074
99.2792714237999
99.3680491754033
99.3180824665084
99.2191578542629
99.1291360607375
99.0310041460421
99.1181161364063
99.196633696548
99.1555539761494
99.1336492011487
99.2692381971366
99.5446452999845
99.5167924483818
99.2541532134984
99.2125453531498
99.1327394082206
99.1665034828024
99.3262511468151
99.5090670900523
99.4735639695751
99.332336743618
99.4992424991575
99.59332886464
99.509935958031
99.30810420138
99.1426218319542
99.2433484918024
99.2907896509677
99.2160767806448
99.3096824184813
99.3738794093168
99.2635835815974
99.2106385017112
99.1825756117055
99.0699542833007
99.1086767786238
99.0825812253151
99.0848917404298
99.2515970535799
99.2832669163757
99.3230511588823
99.3350029862096
99.2375672698301
99.204860681343
99.2309136952284
99.4010387442568
99.6308004239334
99.3983946367944
99.2037305311654
99.1516012092016
99.1773484199367
99.2885940127564
99.2107143187612
99.5249276533977
99.7276909951117
99.3033700859734
99.0688652826661
99.0870197356682
99.1961404361153
99.4022948900306
99.4231764111439
99.2398656807502
99.1019833432784
99.293743555237
99.4382966378273
99.6055577818439
99.6058476441731
99.5079943341003
99.3307367927101
99.0702289271581
98.9735289028454
99.0636145770097
99.3012479894093
99.2841230459704
99.2716627304575
99.2534179237466
99.2185457460958
99.1970695040497
99.1911399474513
99.2747660295587
99.2773157540746
99.1399787734686
99.1828919335404
99.3528588843538
99.2813112585876
99.1276797342084
99.1658639021091
99.1636765864856
99.1962680602916
99.249920717154
99.2074875145799
99.094204631082
99.1660056494488
99.2049611771845
99.144489035956
99.1141964638345
99.1451938754082
99.1402688188817
99.1883452648644
99.2220813535868
99.1947707735295
99.1916515053172
99.2272659491337
99.1422637269537
99.0898608144953
99.1702720789134
99.166313404202
99.1457396687298
99.1631584577907
99.1472071111262
99.171112577641
99.1958952676297
99.1937185056789
99.1707676208843
99.1590832523205
99.1677977768757
99.25498626034
99.252869178107
99.255888833471
99.3030006942402
99.2543607767035
99.2759213066476
99.3644892260723
99.4506431114356
99.480719292958
99.4698170570265
99.537940512081
99.6132689328977
99.6747740292016
99.7962434041235
100.066930748647
100.228534286522
100.264981456652
100.253821237776
100.291169333641
100.260961502217
100.226899741366
100.206712177447
100.168789318985
100.187809963324
100.059488711865
99.9283010196953
99.8893721759446
99.9904889909515
100.1362368497
100.222255077473
100.363952442756
100.996985717893
101.79030313553
101.816449045489
101.56983280653
101.220510447649
100.907266548133
100.735276654067
100.508563878118
100.249987413774
100.25220746513
100.233767171667
100.20451473742
100.122289367817
100.155987007913
100.243310300519
100.084131324933
100.015502365325
99.9844736401783
99.9339555186486
99.9599406280162
99.9422766117659
99.8439746139344
99.7656405670418
99.7599626499575
99.7817009161899
99.763082136172
99.7626821361351
99.7302454642901
99.6448442510806
99.6507044702868
99.6661804488271
99.6239535154347
99.5649595268682
99.4761723726238
99.6137804082258
99.6832499193844
99.6101248027857
99.5295353316244
99.5379553660798
99.6789850233323
99.6489404222712
99.6228453314593
99.5965488548175
99.5825623116119
99.7024379607018
99.745726392204
99.7060747808875
99.616755369708
99.6680197750721
99.7013214769899
99.6814981581429
99.7274024799539
99.7307586110815
99.7920210745359
99.8685843280512
99.8971139522357
99.9311936836192
100.37070989019
100.959840766269
101.255720540416
101.320818168578
101.275707791957
101.26051921995
101.100679493417
100.941208812647
100.792656914737
100.633186245117
100.519578733887
100.347520610215
100.218202737555
100.134918525089
100.07627583883
100.116426418686
100.093558252885
100.053681251661
100.081588590369
100.10471646625
100.146883643696
100.215188377426
100.204207459299
100.381848578973
100.721783632111
100.986878815428
101.001521732865
100.738508422767
100.565075740612
100.48304017861
100.415832654154
100.361506801426
100.31043474181
100.259274665861
100.231031229493
100.172689554901
100.13260966282
100.132090186345
100.08010407476
100.020453302486
99.9858070010174
99.9519236012382
99.9378876510276
99.9678286885073
99.9886563830472
99.9491967068313
99.9360071123593
99.9372600302611
99.9229647908012
99.9091731340593
99.8965521483714
99.8740465901535
99.8584302922578
99.8870124829252
99.8911604446772
99.8860365459458
99.9057863218206
99.9090055361776
99.9106237159044
99.9301087894472
99.9372046116656
99.9527295230422
100.009734379407
100.078005107892
100.151299633237
100.228052853613
100.237916063789
100.213519065817
100.257989744496
100.247904395046
100.153054393354
100.152316753285
100.214519936237
100.279686807183
100.326474112395
100.271612799319
100.130877912745
100.012578837785
99.9071241629137
99.7804411502278
99.6747613486591
99.6203248451634
99.5911007682766
99.5973702181798
99.6487385351818
99.6526767291243
99.6096629010242
99.5132407580682
99.4017018600055
99.3521549602249
99.3382799670054
99.3320978948567
99.3303611215747
99.3089494797257
99.2965550117879
99.2691084680392
99.2088320021023
99.1710553850104
99.1268452717746
99.0639229753335
99.0058530900125
98.9699319923295
98.9484672457617
98.8922380913934
98.8714761546798
98.9015117613778
98.9021394388323
98.8554599128879
98.7897949563575
98.7273863961194
98.6459424726315
98.5009425602018
98.3775595903457
98.3265954393843
98.2501150193363
98.1200619202689
98.0010529452381
97.917076433322
97.8126590088547
97.7116624810519
97.7574107386435
97.8825892321997
97.9230064074236
97.860059764498
97.7214948070039
97.6153589282066
97.5873811867085
97.5926341234494
97.6596022661517
97.7505787776998
97.8199644838844
97.9237600012527
98.0087232366576
98.0124215650157
98.0136600882943
98.0490073676156
98.0845295503327
98.1050865027212
98.0920500586365
98.0719624821163
98.1038041057472
98.1326369838949
98.0819040424575
98.009971081588
98.0042535192813
98.0262336787953
98.0181036362627
97.9617712405659
97.9100067956616
97.8824468646035
97.8202908318189
97.8257923313759
97.9014727864311
97.9871568891943
98.1040727034464
98.2111572060499
98.2865987865022
98.3370049176034
98.3408747584166
98.3222674594022
98.4379151562553
98.5979232641991
98.6192520285123
98.6462424946503
98.7704459110721
98.8646476432149
98.884901728973
98.8931537019494
98.9706672016089
99.0403576556863
99.0672509226368
99.1318479742125
99.1585917571536
99.1397205509708
99.2464843606078
99.4274140812984
99.4322462915409
99.2843410394827
99.0996568521769
98.9542806067876
98.820584493224
98.6198563798035
98.5473801827611
98.5082627102619
98.47653810407
98.5220268520958
98.4808551188437
98.4568729034024
98.4077340501702
98.3669572556812
98.4166720776298
98.3371306188299
98.3013854093385
98.4837201502331
98.4950334981045
98.3546763087687
98.4400209948732
98.6935274345221
98.7411260754409
98.5615230548897
98.4655510153476
98.6141915530754
98.8875898538671
98.7472251501302
98.4458751039054
98.4527209862391
98.6297766807402
98.5628399554081
98.3077221084701
98.1408312178111
97.9764164742028
97.9261806301493
98.1669902069948
98.5589319615674
98.7076963475201
98.427087100795
98.1484933037078
98.3680962816131
98.2984815612893
98.3105840114335
98.5636163223037
98.289326496937
