900
4001.38730172967
648.873616496703
1
128
8
99.2638740866939
99.2462472517394
99.2772166241646
99.2741940393173
99.2593612068147
99.3007232171775
99.4136017445222
99.4140517611725
99.3906775598452
99.3160095856137
99.3276094119705
99.342394697901
99.3277336520855
99.2595332414246
99.2268282000816
99.2878397990739
99.231976483933
99.258462426951
99.3372680036434
99.3888120782277
99.2844033222626
99.1747726315315
99.2998966414299
99.2675764492974
99.244338475711
99.4204008335477
99.485539809278
99.2474786698374
99.1809103573351
99.1928924428003
99.2604138057179
99.5055583462513
99.4847946661806
99.381422517095
99.4105007811761
99.3951816254756
99.3390383668531
99.1228027995619
99.2776930255471
99.5153453018968
99.1126645007685
99.0469254320814
99.2936619127486
99.4926286796212
99.3090686060049
99.0711410016771
99.0606782329318
99.2919567435748
99.4457070683165
99.3340468714339
99.1768271879535
99.1430241221486
99.3620742634353
99.5008619217209
99.2411197475939
99.0461518732683
99.0987803243583
99.1684764046019
99.3599214502267
99.3675257809255
99.1692413257174
99.209781755333
99.2495611268813
99.248086035852
99.3179048351552
99.3402873326266
99.5088035825156
99.6616358165205
99.4664317124929
99.0488194201408
99.0784848490561
99.3050229154925
99.1991348896446
99.1770882993378
99.0402872108555
98.8377480723708
99.1413437754207
99.3672547786535
98.7929645541016
98.1377463606693
97.7400201075468
97.553164070253
97.7465103096911
98.0680275992773
97.8324180175623
97.8817461269
98.3392561295314
98.6601920985838
98.3879082371973
97.8714668712068
97.6570538020681
97.8190265387801
98.0577621970211
98.3764169788696
98.3892319290459
97.8866652240971
97.7019886369955
97.7967716114095
97.9606513498987
98.0814460875172
97.567155622127
97.3362568413868
97.4994037585992
97.6235817586251
97.8915986415043
97.982878531085
97.9672257302876
97.941309481607
97.9360292638135
98.2771132702212
98.2899019749986
97.8337199259527
97.8311123536671
97.9899028642146
98.0612625908759
98.0625040773062
98.0177606536546
97.909524915286
97.8789809339195
97.8083377049434
97.8362791915075
97.8729276755948
97.9933040592292
98.070495120279
97.8981947737277
97.8821653183984
97.9787692108755
97.7964023638633
97.5951870723586
97.7244725173147
98.0160403325457
97.9668614378353
97.6955043009946
97.7583394069713
97.7667240745795
97.7865380894323
97.8127562127023
97.6920457750017
97.4173382873287
97.4510675459642
97.6620965018695
97.9503501874461
98.0297143746962
97.6980902235522
97.3983637489321
97.4919776935032
97.4359634856012
97.6505889036495
97.9039614997658
97.6813265855003
97.4807461760007
97.2450573419088
97.2602159404627
97.5665978599456
97.7700003172135
97.6237883435149
97.4103645432457
97.4117209899552
97.2670789153208
97.3556603708452
97.6111987470997
97.749360424158
97.5366518644018
97.4782327540153
97.6507532762363
97.3997065505028
97.1666326224709
97.2859293425468
97.3635317285065
97.3846412136254
97.3276076761997
97.323017178752
97.3123560663215
97.2836997813459
97.3131423385927
97.3813975083399
97.3985951064899
97.4035261539701
97.3565920815063
97.3898588957775
97.4641985602783
97.4521311527178
97.4805932558849
97.4083488042297
97.2983623927183
97.4104833923771
97.5070378214506
97.5405764911787
97.4847685739765
97.3553993571696
97.3388095411006
97.3689568909702
97.4039865191519
97.4785234934491
97.3491142555146
97.2090840615473
97.4288965895785
97.4368170863232
97.2618198486616
97.3073657314615
97.2126811364666
97.294011254089
97.3609995150953
97.255982744966
97.2587846449015
97.2924488340267
97.3122847136067
97.4160139187831
97.2943168048571
97.0414307630446
97.0272086212593
97.2312278713255
97.3479144924604
97.3563769336838
97.3571951347526
97.2931677523743
97.1811763872483
97.2728410433058
97.4230543280573
97.3672871717051
97.1530937764797
97.0964898749778
97.2165799530862
97.2882756004164
97.3136650057216
97.3220376645133
97.3026148347062
97.3258577219068
97.452750337222
97.5318460485328
97.5589187920615
97.5256625139182
97.568164406713
97.6155438189507
97.5370896711246
97.4913476472083
97.4695992341665
97.5195883207099
97.6533453248029
97.6841297545311
97.5317725337122
97.4354231959657
97.4610922927811
97.5702709188099
97.5975105958353
97.4975594788077
97.454605422434
97.5079231699596
97.5361673561565
97.5940895469521
97.5803856352866
97.5940521037252
97.6749120757349
97.6934383798104
97.6427502960356
97.6385494152697
97.702725758604
97.7092759756166
97.7371090754484
97.7183893965926
97.6084995479952
97.6125404445962
97.6703646648078
97.6969572884886
97.6925025178595
97.7736558527097
97.8225101827044
97.7139766136119
97.6734203044835
97.7679496202428
97.7605071550662
97.7836625607975
97.7814678190159
97.7217721160106
97.7508460745794
97.7528463930634
97.7340389315585
97.6245045486019
97.5834883554901
97.596721368529
97.6242241734973
97.7266837330291
97.602767961644
97.5520562213519
97.597671384187
97.5835472106739
97.5006037147999
97.3922496246027
97.4630160041325
97.4872254055718
97.4492467851341
97.5140616535738
97.5523901340391
97.6246086476941
97.7253781179183
97.6701051123949
97.6414043094268
97.7276847764729
97.7647972771374
97.7572795895336
97.81663707959
97.9135911388691
97.9428929858374
97.8852803306905
97.8620096668192
97.8843742414877
97.7883857339769
97.6736890492888
97.7545617468456
97.9063049221793
97.9597808162402
97.9593644692743
97.989446417864
98.0077612462867
98.025652131773
98.1318880025611
98.1874524105537
98.1499350902747
98.1260480510116
98.1329293742768
98.1334082010842
98.162089758307
98.2027406296208
98.2020409074598
98.2861416025267
98.3687591031058
98.3056010146032
98.2784386393095
98.3015235740131
98.239894978227
98.2281867220091
98.270814205592
98.2568231207379
98.2765479678834
98.3044235355795
98.2774039079346
98.2379878915831
98.2446089903116
98.320594747873
98.3087341632624
98.2077092306201
98.2857374381131
98.3827888394751
98.3199780023574
98.2944290386491
98.3499790971859
98.3419367150563
98.3205462721612
98.3171733439702
98.323125016904
98.3585719293871
98.3683210594682
98.3758002108114
98.3862010836119
98.3723502451623
98.3659414957868
98.3550637779926
98.3415120496154
98.3775601579946
98.3953344523799
98.4011651687399
98.4517001592898
98.4995849391628
98.4761778725028
98.446056795857
98.4459313574542
98.4167336984231
98.4422774973335
98.4708473626868
98.4166548078131
98.4458440062673
98.5335777362788
98.4984048826246
98.3920563659094
98.3818603610452
98.4322829013432
98.3757928436928
98.2997909772764
98.3076938729775
98.3455352248825
98.4011985018564
98.4174769923875
98.4108147200459
98.3681416077127
98.2514834559046
98.1968423189359
98.3324122976701
98.4239662210426
98.3340800218922
98.2750388411515
98.3289641439863
98.4701070835536
98.4249221558071
98.2927363142348
98.3972850539405
98.3847428758105
98.2936264557049
98.3200534146789
98.2841477481938
98.2737999165299
98.3804829091386
98.4812953354456
98.4161450543971
98.2282023050364
98.2000959273234
98.3756551720151
98.6023905188927
98.6330934399256
98.4096539730563
98.2959216119055
98.3197204401471
98.2722770889241
98.3215254128097
98.4216958401148
98.3723208444341
98.2551215809234
98.2528169907318
98.4061917950503
98.4818165256371
98.359235127778
98.3125778534883
98.3898976492338
98.4519709414745
98.4740044155577
98.4062707629472
98.3438272777328
98.3909630371824
98.3773148416728
98.3541270579459
98.5001481168772
98.5114708856695
98.4067590986237
98.4071809202521
98.4449558529835
98.4919226090887
98.5806348102023
98.6630256272601
98.7439437894524
98.8461194874441
98.82601059516
98.7068654978304
98.4987217649642
98.2250377802681
98.3262860935582
98.6766591602913
98.8150156600016
98.6880897165645
98.5615394895244
98.6041822651753
98.6446046632236
98.5698087849686
98.540889755751
98.5332071823858
98.516722817258
98.5300398630376
98.5531647549001
98.5225243542889
98.4877239914043
98.4874030874569
98.4606830088244
98.4806422869837
98.5026483297735
98.505166156989
98.45402094812
98.4120264604426
98.4158715318158
98.3022942341739
98.1956349955873
98.1282739417692
98.14021356599
98.2443839897864
98.3323741606187
98.3409959038191
98.1975826007895
98.0578315054085
98.2303652099188
98.2108563096275
97.9266364394548
97.9262709804079
97.866343795744
97.768795050254
97.7437825972884
97.9185362795773
97.9483668301289
97.5859763956202
97.6136408771648
97.9792478419788
98.2223317078747
97.7818655575797
97.577731658683
97.9140591308801
97.6390577183504
97.3587220966843
97.3172538044862
96.8268085324697
96.5523684169203
96.9221914513442
97.4073908470407
97.5961249396269
97.6478023023539
97.7790175817172
97.8468693001951
97.8186522774395
98.0438898561929
98.2636384268229
98.2611637333022
98.2678376444746
98.2607750907439
98.2687730949848
98.2077652785595
98.1138438441319
98.1323102047444
98.1067351100838
98.1044731062247
98.2493861798905
98.3579503111129
98.3963312254577
98.4583123669036
98.313881339951
98.0817445888357
98.0324818965477
98.1121711689219
98.0703605799129
97.8337077485813
97.8358105775226
97.8642882461885
97.6756945739543
97.4236546873348
97.0064935534242
97.0992460959766
97.5535674623329
97.4696203455198
97.0540455561809
97.2431432984887
97.1596192702069
97.0643577501198
97.3001505394336
97.4062798839385
97.5697955065438
97.8167114598673
97.6593142106236
97.4704237770386
97.3272413074181
97.0812460874425
96.8800928560154
96.7411016965368
97.0406927324468
97.483828701739
97.4629299722067
97.4243224307646
97.5932050982057
97.7377364960706
97.7702503941263
97.7215182149981
97.7217428766158
97.8590284736662
98.0426224316406
98.1439664898631
98.1205027315981
97.9815530663299
98.0442341374384
98.1884768034511
98.2326844260703
98.2459051581514
98.2227943894443
98.2130972542164
98.2508550662312
98.2272075175544
98.1704186064482
98.1858720480812
98.309289185129
98.5081825876549
98.406545187673
98.2798941017264
98.2910148855755
98.3466398052303
98.4806397758257
98.6445518803272
98.6880665412116
98.4723332434448
98.4823438184439
98.6638272086354
98.7172684560304
98.6018908012015
98.527001834848
98.5544204340232
98.5782608304754
98.6479495867861
98.6729940585695
98.6923670681857
98.6186267306981
98.6702601263248
98.7702303523199
98.5700741268396
98.5938280949846
98.6477851924739
98.6153406160562
98.8090545054435
98.6723702571914
98.4549016392052
98.5930243156174
98.6114547569891
98.5992594536432
98.7356961688738
98.4850526518041
98.2033222409119
98.3086169422157
98.5370912443233
98.3409208917219
97.9173669082248
98.0811544179165
98.4680004527116
98.696776088075
98.104875674982
97.9982918981581
98.3591656693253
98.5575839708664
98.4779234536514
97.8853489066456
97.7586292760956
98.1781700726593
98.393191923662
97.7586487992264
97.8198963173568
97.9823693258495
97.7752295191045
97.6052336159081
97.6638408163949
97.8054407431224
98.2580992079932
97.7868377421309
97.3244919076064
97.306388740377
97.5499903887715
97.8656159635939
97.3542552720635
97.425553691417
97.6462979048819
97.490576864385
97.4279503991977
97.2660521566588
97.3250439919391
97.4635524985991
97.4830774297673
97.5603156146166
97.5932286063413
97.6314342766795
97.7170137161204
97.8060982061639
97.938972444906
98.056380734268
97.8709078444442
97.8855477246412
97.9448763126382
98.5178588896738
98.5546588780192
97.6801020362861
97.8584267847264
98.2274899288131
98.644821393805
98.2314213156798
97.8043139869555
98.0214214957439
98.2290350434273
98.4545168115654
98.2397359022601
97.8354779537741
97.9030362154396
98.3696283311211
98.0894577842646
97.7357717752601
98.1092468189477
98.1042002328344
98.1849069921225
98.04060792785
97.8407226432608
98.0135674338774
98.1870169476861
97.9252111613236
97.5958824809663
97.7088959339441
97.8797746376188
97.9432125015271
97.3481488017894
97.4131884141982
97.5121005899184
97.5411808254055
97.8270130784579
97.6616029795585
97.4098003055626
97.4815157933969
97.6247376046015
97.7496183977859
97.4372467614027
97.3938563953437
97.6369650869279
97.7734645586311
97.8505515987384
97.87096581849
97.6836761122136
97.7241136231201
97.8203464381559
97.7612090162411
97.8800287810829
97.9419152887874
97.8517868629122
97.8578036509162
97.9456289917591
97.816242707134
97.7772210951116
97.867332208576
97.8577446086975
97.8280599844767
97.8566907266116
97.7767661100089
97.6431849067495
97.6527888148613
97.7057167777047
97.7627813369205
97.7526698771731
97.7025592060318
97.6625632129994
97.6059615720889
97.5792843144285
97.5942378588174
97.6020716873135
97.5960672982052
97.5525129664599
97.4808637627196
97.45196824281
97.4435574214028
97.4254326994624
97.4438962316346
97.4144581603581
97.333919726676
97.2576732261686
97.2198123358438
97.1887515935207
97.0892065060405
96.9782404778026
96.9338714300667
96.8912462528826
96.8217247031215
96.7409324040579
96.5817506563659
96.3496968498645
96.1077902152463
95.7918368255712
95.4629702287061
95.1581991156046
94.8203007993114
94.4517035961222
94.0965023815793
93.7578430063599
93.4249110134059
93.0491169749628
92.5693649450976
91.992909573435
91.2638679501438
90.3862524770266
89.4805975699997
88.9403117998839
89.0951525078384
89.2899162925968
88.885255060929
88.2045373380134
87.5746275097683
87.0120262948945
86.4926762791946
85.952286381129
85.3995568717046
84.8088045277598
84.0310767118945
83.1684124598099
82.5171752282741
82.1385798095134
81.7911190879063
81.2708048869307
80.7062554087457
80.2112333897096
79.765744820379
79.3806020849899
79.0759213160998
78.8092187956298
78.530175045302
78.1719080198803
77.6112541168715
76.7722863752417
75.6977999949739
74.5649025160126
73.5247428138924
72.5480002226839
71.6111431935793
70.6906183747534
69.8022912325641
69.1166319971912
68.9319009911926
69.4141570482133
70.3409875346269
71.0607906810456
71.1240507780683
70.6997971981828
70.2938842129853
70.4080709748476
71.2033247601082
72.3636730238345
73.521221057217
74.5541606411726
75.4777213204573
76.3051668326979
77.0270801029337
77.6787850069014
78.2976935424229
78.8109332072842
79.2327728868522
79.6333669955733
79.9589347120152
80.2077961821656
80.4003451046608
80.4382237777201
80.3522651897543
80.3396058531127
80.4402574105932
80.5983651724123
80.6682080351281
80.4914124855225
80.1693513478431
79.7705204183377
79.570064979518
80.0023093814662
80.9488750990077
81.960659207063
82.814035259289
83.4674112510814
84.0280905633325
84.598144410531
85.1042260598951
85.4692725046001
85.8094098898864
86.3413785424818
86.9641722013382
87.4869535142308
87.965180456744
88.454053336277
89.0677281531494
89.7143413500534
90.2348147065539
90.6493550412881
91.0700516281208
91.5796460728386
91.9930512995272
92.2982735104131
92.5274729583753
92.6327630061601
92.5478774854359
91.9690974986789
90.5332923267078
88.1257900299827
85.3157684098633
83.3394647380574
82.8354465322368
82.9941404809808
82.7668971541042
81.8626370087098
80.7653611086741
80.1743169632947
80.1844522230487
80.5595077571188
81.2651296583386
81.9567568260027
82.1874330369728
82.4393243161115
82.9101149582755
83.5155512445639
84.0971581806489
84.486294293242
84.8836341630527
85.300896637204
85.6810383350826
86.1528178782056
86.621426102163
86.8973614765585
87.0474852819684
86.9633022919506
86.8033135702519
86.3891970149228
84.8351737192863
83.1021807359409
82.9396855067528
83.6904807804239
84.5400415644153
85.5173384726167
86.0488589720649
86.0625291743524
86.2126645738712
86.7581056569346
86.855382471344
87.3540047155708
88.4035733182619
89.0407345543368
