900
4001.38730172967
648.873616496703
1
128
8
98.9901492968677
98.9506404724073
98.9536900281342
99.0007143943676
98.9254136212571
98.8934291346474
99.0740117092559
99.1152340007246
99.0159082085921
99.0244244608306
99.0380288461537
98.9433484526608
98.9063279812019
99.0343880928751
99.0716142022538
99.0251653526411
99.0512925084449
99.0345311229396
99.0346272668306
99.0653015387345
99.0118998893485
98.9636418708848
99.0566952196698
99.1949859167124
99.140614593302
98.9266227814696
98.8013587686618
98.9503296093577
99.084644824568
99.1245434059709
99.0364996421241
99.0002666560139
99.0881710919853
99.0875842356672
99.0150552328097
99.1036224278137
99.2759393548708
99.3696188390808
98.9799749071907
98.6647910249703
99.2435323159645
99.4044919070655
99.0801887124223
98.9184522763783
99.1076427045736
99.2859048703151
99.2508755834761
99.0586482197554
98.9134007573866
99.0405287741659
99.21898326233
99.0789198139691
98.985642112067
99.0537863558696
99.2219332162635
99.2965184647501
99.2134714839782
99.1733919673099
99.1765692196367
99.1226591349442
99.0317974050071
98.9858225623647
99.139425271623
99.2065162302185
99.088112241264
98.9814589792047
98.8208938132474
98.8444710959873
99.0601097609786
99.3687094327015
99.218750774156
99.041203415307
99.2649954148832
99.3066586270624
99.2257470418076
99.1554374307504
98.9486438217263
98.8084914965498
98.9219922743748
98.6358913501914
98.3058013244813
98.1834809933633
97.8185577616859
97.837428250997
98.4171145898486
98.6538276992799
98.5704142956868
98.3965256362289
98.4807684872259
98.8088053398955
98.8781587760893
98.6410506968848
98.3687604465115
98.1192910986546
98.2203791751009
98.6900214183761
98.7874742093953
98.6706394819172
98.4334481444008
98.2219011829723
98.2454314623555
98.108538359896
98.0182258065304
98.1787438813159
98.3779535427083
98.713659773101
98.966081132544
98.7800300257309
98.7244879324465
98.8109235038902
98.6546475141462
98.7014064293196
99.0100759165112
99.0504414156952
98.9965611722723
99.1461066851632
99.2548788095218
99.3966213509553
99.2768109060266
99.0895260177373
98.9877810609882
99.0155003083682
99.2814974851362
99.3817222899791
99.1990506127479
99.3374027837374
99.1997431880783
99.0869084107245
99.328215070306
99.4502886308131
99.5284726312591
99.5355993106562
99.5029671886117
99.5226321944984
99.5552922426687
99.4116784621528
99.4019514972202
99.3818826763066
99.2635733514483
99.46129550253
99.593007200609
99.5991083864072
99.6001449075193
99.4594649602799
99.2196334899441
99.3042885044763
99.4452076135425
99.2776953415368
99.2907540247631
99.3885567418851
99.5209012044198
99.6543662955139
99.474296117796
99.3085331464891
99.2993524770594
99.2760043465301
99.2323800074792
99.3636699272624
99.5648833481094
99.5895482635553
99.4429604844957
99.3673558028271
99.2948707992953
99.2732993860064
99.5166165998032
99.6444105415479
99.5378371715245
99.4254217163562
99.4616157257612
99.4772335987212
99.3170469562845
99.373887546045
99.4295085885633
99.3669400021489
99.4257890031288
99.4651744387304
99.3113995400574
99.3827039954027
99.5478534547127
99.5985234662728
99.4160533037391
99.2704165510032
99.3201769213181
99.3926466743368
99.3457448763974
99.4990366129083
99.5835923871244
99.460666221195
99.3820374907199
99.3786426261225
99.4459620132875
99.4056703261682
99.4151841662806
99.5259795353798
99.541689685921
99.6190052888124
99.4438741453396
99.2217085293984
99.3732987877782
99.5117025471415
99.4306957357923
99.3478420236851
99.2936653770627
99.3359514632798
99.4334108457123
99.545668202238
99.3927995210929
99.3091224888221
99.3857906771897
99.4488017325153
99.5695474295365
99.5857321490351
99.4979839411051
99.3666854520483
99.2627675118083
99.3918217502083
99.5860626542839
99.6358769473589
99.6347976162188
99.4935122637401
99.3412941427
99.3547713420484
99.338224940954
99.3370210156755
99.4709550313317
99.4743665677319
99.4379893462084
99.4660084405941
99.3835091718454
99.3598720034457
99.3685519032691
99.3404255889899
99.4519112443672
99.6007458718296
99.4883495505143
99.3578913117429
99.4075404396067
99.409273639
99.4358491900099
99.5055298918932
99.3609697320031
99.3454506632925
99.5826737171271
99.692287118646
99.5680715050515
99.4733084822455
99.4617242186495
99.422039548101
99.4720417815627
99.5034392572872
99.472336374345
99.4696742151933
99.456960027564
99.4756392701416
99.5100893659835
99.5174682144069
99.5401298700215
99.5225138211235
99.4697845337414
99.4611648541937
99.5221428381468
99.513477835338
99.4204524055143
99.4483735313406
99.4750619138124
99.4716252967142
99.469269583642
99.4374996465825
99.4367765979671
99.4706371194755
99.4756357825591
99.4467763307331
99.5012885360217
99.5808622494918
99.6111041572334
99.6192070755059
99.5812649517922
99.5851180045896
99.6575934401009
99.5437914299335
99.4662043934013
99.6326533694337
99.6434472644163
99.5628587486838
99.6290602771124
99.7423413002261
99.6882085143513
99.6092882838176
99.7035010172475
99.750355020915
99.7378495972829
99.6671072167636
99.5419980651646
99.6003478454522
99.7281955588696
99.734673188486
99.6333912959522
99.5913020026834
99.6316759496059
99.6264444690072
99.5353115518281
99.5368038556298
99.6330945366753
99.5814687860298
99.4923632314089
99.5533491271151
99.6527429091505
99.6443589143235
99.5611684232976
99.5667827120888
99.5979703795509
99.5908623451933
99.5744773870222
99.533463790417
99.5166595634631
99.5179114383131
99.4998682116796
99.4581894743667
99.4086261676712
99.4118642069017
99.4257243521513
99.41989439977
99.4073273173339
99.3740665628381
99.4171974315908
99.538649020628
99.5265941267702
99.4594953357148
99.4757777434498
99.4804211886704
99.4363403955725
99.4352259196736
99.4454892122199
99.4752547995551
99.5551914549474
99.4731972856519
99.3664107123169
99.4890015963491
99.5625178544339
99.4978112566526
99.4619315673697
99.4289435654069
99.4288272714836
99.481037029105
99.5043170949992
99.4968798605385
99.5052594809911
99.5041338895863
99.5075915889051
99.5279266712735
99.5393463265714
99.5188617831704
99.4592722462778
99.4186065329197
99.4364885543019
99.4890137139382
99.4806438429511
99.408033689688
99.3736196270659
99.3931529070554
99.406965353494
99.3844523416213
99.3223972781317
99.2801993693191
99.3239403544021
99.4083271892505
99.4438399230544
99.3843177843432
99.3272219352544
99.383243246404
99.4928127747567
99.5239381671267
99.4506436241677
99.3829542894505
99.4317788347496
99.4780073136932
99.4972195282654
99.5789661305461
99.6078308345716
99.5122645422628
99.4873541009026
99.610493019786
99.6267442003357
99.6304069111778
99.6790542509694
99.5914068690961
99.548977814144
99.5823679527494
99.6638260295671
99.7695071513921
99.6594846400937
99.5125510738633
99.6180799748865
99.8026962822261
99.7546116800913
99.6317981998404
99.6514271980582
99.6397921352634
99.6324027357838
99.7301715782746
99.8338536836332
99.8751459390431
99.8342736274105
99.7159110831916
99.610870586826
99.6211588182954
99.6934353181469
99.7757425933403
99.8423624124948
99.8682211392342
99.7490637668161
99.647612600206
99.674402394249
99.6534602720367
99.6623328419877
99.7220648103264
99.7367797949963
99.6965806938836
99.6885997355647
99.7151335829118
99.7911536986273
99.7977989937784
99.745812846235
99.7435020642348
99.7818312120028
99.7751111839089
99.7266622783979
99.7589615985309
99.8150545394297
99.7986261835845
99.8458542626808
99.8247198062417
99.7256471175271
99.7189229774346
99.7069826099698
99.5675332209476
99.4742978111198
99.4766552670024
99.5336860399582
99.6105874476129
99.6673874668607
99.8000813728034
99.9145375107915
99.7825974894974
99.526960872694
99.5291612907369
99.6410509464974
99.6305666478123
99.6810695957714
99.6253384107834
99.4744187062304
99.5366496935179
99.6506070531686
99.6154535596552
99.594918500477
99.6642102550167
99.7161482958257
99.7121942539588
99.6824133184897
99.6850536759873
99.6956341904973
99.8400429649735
99.9629441367657
99.9368960509223
99.9750361354166
100.005270070717
100.160388209577
100.310039672438
100.399183053887
100.441997584809
100.327453384047
100.277067844312
100.548703524989
100.594870048816
100.374100449871
100.533732425908
100.612787266902
100.486049129759
100.834427311558
101.148124496567
100.931857338573
100.88577665856
101.054775801716
101.127064011688
101.06553190926
101.091275646183
101.249908052431
101.281217999087
101.425140174456
101.695460049362
101.326918637441
101.058262474041
101.448360782526
101.895491533828
102.269221602231
102.487938252827
102.099374200946
101.568970882804
101.301697716576
101.286062918463
101.307261132028
101.036979922074
100.676176186662
100.63563897109
100.657606943335
100.50847139857
100.496104582669
100.555960612172
100.425469487441
100.436674418226
100.670270902475
100.670708656329
100.63003376834
100.566895295869
100.40532905937
100.373954435048
100.473174228935
100.823056500862
100.831902696579
100.718520002441
100.904190229552
101.011346287684
101.152538324574
101.141405555204
101.264344970175
101.803260629751
101.885273841663
101.626913030088
101.745603925454
102.033327425391
102.150484426403
101.934156045182
102.038143467587
102.258685987962
102.11700732208
102.073372843101
101.841104910195
101.458820282166
101.267084787779
101.208848466384
101.450807105514
101.533584229638
101.719387343339
102.117089121717
101.711018234232
101.361940945088
101.635649768115
101.712145129022
101.391544321187
101.08834883807
100.960357618272
100.863886362009
100.629348193799
100.559117876681
100.585936459049
100.558495245232
100.393892776103
100.264541748941
100.359173404606
100.370790860985
100.192213900044
100.149184324444
100.11852840486
100.042057590951
99.983316382681
99.8719081389732
99.8434628748651
99.8877939236731
99.8731568097631
99.8066133720204
99.7273669428831
99.6193169118251
99.6026255086987
99.6461592691958
99.6589784931631
99.6192955624522
99.6595550810766
99.6356097975294
99.5987015147098
99.7639112870117
99.7080948931178
99.5875397676171
99.5514873942196
99.5874088888187
99.7152886507266
99.7074329942839
99.6675430490904
99.6158036490337
99.5750731445484
99.4516796318178
99.4674747951291
99.497523544483
99.4428533183868
99.5972630728964
99.5429389272441
99.4616610863138
99.4708988309505
99.3511406455378
99.4873351873711
99.6608048013692
99.6268470787232
99.6431988485302
99.7236548659884
99.7034925931
99.7991534632531
99.8685332946523
99.7993715821988
99.6445949192484
99.7279016710488
99.9758004073092
99.8901828561847
99.6336004224488
99.3412406668167
99.718211465653
99.7965025640362
99.4773194528867
99.2091469609258
99.1880224872739
99.6529009217876
99.6761434664351
99.2736818955426
99.0552362914947
99.5622554969753
99.5100232089797
99.2459261981461
99.3575670919069
99.4911156317165
99.4276845664816
99.2953582354677
98.8368682991809
99.1413867497267
99.5416554679949
99.6001843337927
99.341237017399
99.118445080036
99.5666095550862
99.3775705212853
99.1840986390914
99.2534205842092
99.2941490509525
99.5707684048853
99.5629648713758
99.3987604988545
99.4252728239158
99.4083351245914
99.3618899146539
99.4279855319007
99.4884232963516
99.4387705085276
99.3286785603881
99.2892534191785
99.5297948185061
99.5188817742063
99.4674465790675
99.0016110335737
99.0577031141223
99.8089055431513
99.690417843435
99.4096243010014
99.0480755095763
99.4528343827039
99.7350054299897
99.485788670888
99.3747619706622
99.2240618481224
99.2722208233273
99.562838878546
99.5573374344665
99.1531770050059
99.4298807492885
99.7313147333822
99.3725288412323
99.3821297390891
99.3579177690184
99.4709953461925
99.6067068356009
99.4591513744739
99.2656477704385
99.4812579051873
99.6872007056067
99.4854744139182
99.3428361721479
99.2916298984303
99.7575201416495
99.7228576846326
99.6509762133022
99.6350009616267
99.3836985841736
99.5658922907337
99.8022265759009
99.6906647926116
99.5548996113551
99.4796083180688
99.8028378948594
99.8739216652197
99.7003937983758
99.6821148095599
99.6819375540398
99.6566369115688
99.8095194176653
99.817463610176
99.8016999349615
99.8971887331974
99.8512376973238
99.8359323399907
99.9028506377143
99.896014079688
99.8393199663121
99.9353032895528
99.9650100064898
99.9195664261628
99.9697965973699
99.983365989734
99.925451724517
99.9777324129629
100.055930542028
100.002241928719
100.015528745816
100.006246665177
99.9587775289283
99.9846838492939
100.028654355948
100.018368413619
99.9638277271161
99.9362750454169
99.9272211615706
99.88501353811
99.833391878891
99.8006099076708
99.7394703147104
99.6649405557743
99.6163700770344
99.5806040503536
99.5580232666166
99.5070412145021
99.4662442526949
99.4452935995837
99.3928797390708
99.3000176358303
99.1890671006142
99.0943316920975
99.008480515211
98.9136959754281
98.8282693079083
98.6894333223963
98.4143558098142
98.0853385080324
97.7160217295972
97.2627211455996
96.8253410641001
96.4316201236969
96.0468497486151
95.6666058812754
95.3048779578389
94.9089468348612
94.4931836309667
94.0428367290744
93.4710506850156
92.7378472371215
91.848573729963
90.9135181709579
90.3896940666415
90.5855607415098
90.8374890825601
90.4954768999598
89.8407826326473
89.1939225516553
88.5781681370716
88.0034356879834
87.4249211819417
86.7891776811308
86.0809452279426
85.242022302452
84.3025524430455
83.5256075449903
82.9903218059132
82.4250649450723
81.7287104788734
81.0024248894515
80.3414618633638
79.7802587412906
79.2719910260023
78.801706097023
78.4137348723089
78.0768204398137
77.690513695789
77.1091783570124
76.2106396693871
75.0800870914966
73.9714307864158
72.9602596733878
72.0266278006562
71.2087255180827
70.4472329401948
69.7021249538819
69.1176991939704
69.0109991918425
69.6385638826945
70.6823052764038
71.4253908786131
71.5581226405133
71.2870390165722
71.0163349079319
71.2479135759531
72.1760827972298
73.4538898471013
74.733324893891
75.8915424887836
76.880289418908
77.7401325657813
78.506486792904
79.2274543159855
79.8778647754904
80.4117116568365
80.9101962807794
81.383967292839
81.7287986742325
81.98747253253
82.2587601988794
82.4325910472661
82.4577108554977
82.5139199869752
82.7178707807687
82.9318210024976
83.0436427402936
83.0766125028894
82.9224908992777
82.5963952609902
82.4914628244253
83.0239546606918
84.0942950244164
85.2050611390417
86.0251858019967
86.6708894718617
87.3431752391031
87.9172199883687
88.3397387486373
88.7002455657069
89.0933635090017
89.5898812584508
90.1515228005862
90.7288074034155
91.2928882193631
91.8242164129871
92.3019444270025
92.7441650933729
93.1396699026942
93.5176181159849
93.9859470408021
94.4472521210606
94.7701053236606
94.9412586220061
95.0415869343444
95.0033458294399
94.6709901964206
93.9924178579512
92.3500975953313
89.4748011706806
86.1954052213158
83.7560523646587
83.0510785636813
83.3871241416177
83.1379592070148
81.8437879551602
80.4458384749526
80.0816160732289
80.7820944718307
81.7949560574907
82.7630647349202
83.6324663192924
84.4729551371857
85.2659837602934
85.916645319678
86.5707862445863
87.2416367720998
87.7097758577658
88.0570047464231
88.4276245560517
88.9754991195158
89.7274739663597
90.0969178824728
90.3487598488901
90.6104803888115
90.4735441667801
90.2512161111928
89.1105515919308
86.4832093218855
84.839596397718
85.5337898194314
86.7858111348476
87.6459696427169
88.8193241203329
89.5516488018543
89.082586901334
89.0711275836443
90.2637316788945
91.27541831586
91.6104777205186
91.2307293447421
90.1896324933308
