900
4001.38730172967
648.873616496703
1
128
8
99.9862566841142
100.026518599446
100.001023903243
100.01488877721
99.9687111700193
99.8917299137426
99.8932164150245
99.9375218188826
99.9637706992111
99.944236346654
99.9822607599401
100.007388549221
99.9348630304885
99.9065666513125
99.9193705780934
99.9785303662149
99.956136388468
99.9958938553716
100.15012989759
100.104842372294
99.9909825749644
99.9883746130927
99.9332793214901
99.9197328321838
99.9782403952265
99.9278948128886
99.9136701427754
99.9934422189726
100.050066515199
100.085164726274
100.067830214573
99.999367454675
99.9702867075339
99.990250660333
100.023504562329
100.102583437518
100.047831131704
99.8940351167468
99.9673521566253
100.065216508006
99.9432911061737
99.896136181121
99.8896845340745
99.9248139755601
99.9588698020787
100.032801008897
99.9301998267837
99.8535917883564
99.9822095271877
99.9759943786245
99.9404060933201
100.024553117283
100.102898236859
100.096013006727
100.004751115874
99.877272923693
99.8223201184949
99.8029078788203
99.8604310731785
99.8566188628306
99.966410187819
100.03922314507
99.9505985169461
99.8875697298635
99.8691282398182
100.008124953973
100.248313784346
100.140002554631
99.9145227299646
100.006313924272
100.114864994798
100.076744439843
99.9806661867165
99.9498177511957
99.9739367579358
100.063395696693
100.057967717531
99.9060098711446
99.8643989812424
99.977266850176
100.051008741429
100.021670596107
99.9978919443299
100.021083835341
100.032072731335
100.088710631705
100.140682650716
100.030168948245
100.098924524484
100.170873403315
100.127711383013
100.00749099366
99.9308500526662
100.046976359343
100.147724025355
100.024285776427
99.924915930617
99.8449289558574
100.037511332496
100.24558708125
100.036973993269
100.004386417348
100.112901334436
100.184217806584
100.190402784375
100.05215656239
100.061677346503
100.066231936224
100.014834107237
100.144944008077
100.066401917376
99.8527239691833
99.8284949337373
100.07903318264
100.228573430412
100.085737424151
99.9760670397029
100.093457635492
100.11640075783
100.031980366914
99.9593435532363
100.214646300004
100.277163546299
99.8677789257459
99.8809659334079
100.187223475367
100.077304065728
100.013556626371
100.071288466209
100.038164259349
100.009702175311
100.142620646384
100.205872178898
100.022864257371
100.059913044934
100.077683978873
99.8592290585024
99.7996589118225
99.9180822422508
99.9067715871182
100.0502856433
100.131845388865
99.9680764396614
100.004901813278
100.073604953129
99.9210614957773
99.835209727887
100.16520516314
100.231321751052
99.8998762837249
99.8141373747806
100.110725733412
100.268994933304
100.299680148811
100.114482240296
99.8519588542042
99.8714409613642
100.038035619124
99.9876362292969
100.042434136728
100.001188039385
99.9113827232255
100.107424266487
100.311253005449
100.051122631431
99.9757584377883
100.115647270088
100.038864830211
100.032098083188
100.028140532697
99.9304971020039
99.990852336372
100.276164131557
100.334695188
100.115082738377
100.036406836813
99.9787247135147
99.9627803801674
100.213748714936
100.129195020355
99.8130725789386
100.005991273193
100.187748258712
100.074033064447
100.060949992202
100.023737019562
99.8129722884982
99.868768628619
99.9494716989885
99.9942322052685
100.021946740914
99.8710978902538
99.7404852483843
99.8356759877905
100.011820225012
99.9903139356101
99.8888182609281
99.9046846725339
99.7283246713458
99.8065493029258
100.177130943613
100.084798836503
99.8767280828935
99.9295923387912
99.8961709712288
99.951778672077
100.055739852755
99.950109990106
100.017000967919
99.9730121245742
99.9368731837663
99.9748951333071
99.9512686907261
99.8661205737169
99.6999849734289
99.6911412429026
99.9476121238868
99.9501934621035
99.6688315884717
99.7065652381194
99.8975675073834
99.8510456223001
99.7897320626304
99.9777585998527
100.046694710605
99.9054505200136
99.9098941818288
99.9167919235198
99.8273975931682
99.7711457045793
99.8918822718137
99.9170598837971
99.9320742516691
99.9704979997802
99.8113757875087
99.6626661146037
99.7100819477518
99.8640056343266
99.9048659215389
99.8267975827893
99.9190798397629
99.9876800620842
99.7769946497895
99.7155617844695
99.8389401100962
99.8862502263159
99.8855367355447
99.863265186656
99.8764463565839
99.7886239820893
99.7624658615663
99.8368121157162
99.7820721650036
99.7588394474032
99.9254203729355
99.9093697610889
99.8011815912871
99.8696314040854
99.832524759773
99.7191771997054
99.7539266573232
99.9037529737937
99.9245905454966
99.8051319962862
99.804379541925
99.7845391684053
99.7785933368503
99.8862215970799
99.9402027235718
99.9625045708844
99.9283790434372
99.8053659997965
99.8216104711127
99.8725826288535
99.9078099153903
99.8855165394505
99.8037101116892
99.8428074654667
99.9531500816194
99.9412619509104
99.8851655966274
99.8368842985347
99.7834871239828
99.8310427724462
99.8792370905094
99.9009011175074
99.8656546378892
99.8457271469499
99.9284306944198
99.9929884310832
99.94556054316
99.9498063773545
99.970357973171
99.8809229451905
99.7907635295182
99.8096636599348
99.8916151169512
99.9661149031973
99.9239393500359
99.7912188588538
99.8206790775539
99.9527424243731
99.9604986356375
99.8929687838982
99.8407543563475
99.8414541405119
99.9673848030646
100.054265015976
99.9678466015484
99.8551081820528
99.8349773317274
99.8681292833383
99.8714700043775
99.881272302801
99.9537262875262
99.9745415889091
99.9144225889807
99.9052330523353
99.9273000251596
99.8870755790778
99.8243287141574
99.8097716414858
99.8317319031387
99.8661233429864
99.8626145405713
99.8578311745081
99.8560121618131
99.8045194613818
99.7918591252717
99.8489093130587
99.8763149916011
99.8350182700939
99.8093441536948
99.8427376642428
99.8827808653595
99.8843041496226
99.8214681187188
99.7870190008702
99.8296570816003
99.8255232629937
99.8048504644974
99.8490056069431
99.8862807903799
99.852564997934
99.8121222357755
99.8064781862179
99.8102014233027
99.8450213392444
99.8892907437714
99.8816734793414
99.8447974848838
99.821633713251
99.8404573289268
99.8654816041157
99.8650383337495
99.869103303414
99.8630221057018
99.8570933860925
99.8617279500637
99.87038167052
99.8845251397244
99.8963344724676
99.9039431302356
99.8895748310239
99.8742805668472
99.8678501149753
99.8682293559725
99.8389910490949
99.7668612139903
99.7582654751803
99.8825423546438
99.9655497937685
99.853456107957
99.7977385041859
99.8780790473717
99.850466881586
99.7902623968376
99.8394047694586
99.923391031671
99.9141944941406
99.7501176931782
99.693449034055
99.8374203057241
99.8489410350317
99.8291109443214
99.9419549527907
99.9692004434483
99.9450157210663
99.927779959156
99.8918787433618
99.837784811235
99.7863048141873
99.8830121419796
100.004168219527
99.9861412174075
99.9452118068804
99.9366404700821
99.8890337835084
99.9140822533431
100.035330335621
100.010467118979
99.8912089534163
99.9442929120875
99.9039150873008
99.7582671111606
99.9739893458713
100.061328278123
99.7964624806082
99.7047698223451
99.85070359947
99.9789209261229
99.9515493817698
99.9087854478582
99.929959418798
99.8771698114115
99.9501173751249
99.9731374829689
99.8408653093543
99.8034692205763
99.843250204583
99.9344122663729
99.9837715862518
99.9349907512597
99.9297862498736
99.9007653388565
99.822754152376
99.882918616923
99.9436052347593
99.8352773159654
99.7731041840186
99.8440151133978
99.9088804482581
99.9205974781947
99.8767434286564
99.8205478116443
99.8989572557
99.9770158498491
99.9719369378084
99.9961449032425
99.9980677454264
100.014660754003
99.9295910625928
99.8376592058615
99.8813668394655
99.983208312658
100.08355610591
100.024996141899
99.9241090919225
99.9237155265131
99.887250044889
99.8738722601778
99.9128600039974
99.8824462939056
99.8997109253582
99.8748986655758
99.848883910973
99.9237225962555
99.9499640111011
99.9813798217135
100.024294654839
99.9412151941101
99.8557155143959
99.9175601498201
99.950600451293
99.9480133039467
99.9575961319268
99.8227438785148
99.8002610940465
100.089991285162
100.167023481481
99.9367583427233
99.9087016109903
100.067056026515
100.112854940129
100.090538851257
100.009712728747
99.9383865062551
100.148227476749
100.301566557913
100.110101405198
99.9777691569612
100.118439982425
100.105593887771
100.142812285841
100.244104060301
100.290061599889
100.400787003333
100.338998151865
99.8223837759879
99.6870305487623
99.8391293238572
99.9540192612305
100.255117149141
100.277859898807
99.8303941479813
99.7465287832612
99.9776016704199
100.156841682226
100.136176359375
99.8903588058286
99.8827572180302
99.9638822383816
99.9512410178675
99.8722352226667
99.8172944374291
99.9496354313262
99.983825886008
99.8956715179295
99.8626640699328
99.9912920606777
99.9892064718536
99.7765284705301
99.737824326856
99.7222726609375
99.8256213855841
99.7340574314835
99.7436598681416
99.9019219158308
99.790757312725
99.8117044055398
99.8485241827
99.7787332684602
99.8708368790979
100.007449481734
100.190326682965
100.247601213527
99.8501428736472
99.4805858273225
99.5832045384057
100.230938146435
100.35795403358
100.005498300094
99.7132466166437
99.81625679414
99.9802564284625
99.9883183697095
99.8572322395402
99.8162935322658
99.9952045866287
100.028922840331
99.8661264509237
99.7134512774587
99.5905556187297
99.9041650199271
100.269192483963
100.015388405154
99.7151841871853
99.6261412539516
99.5777712092151
99.5852480295565
99.9397505668655
100.03129590398
99.8225335369566
99.8217185172263
99.8764710682304
99.8513230817696
99.8589227712619
99.8550240066693
99.7488047682743
99.7416234863082
99.8738899187784
99.8956050705458
99.8025325264805
99.8063277265279
99.844965210549
99.8005377564023
99.7797922936427
99.8695757323128
99.8655662463434
99.8107109903794
99.7950201897042
99.8108440713526
99.8025656919772
99.8010472909781
99.8103466772434
99.8183584707241
99.8521314421734
99.8624595948889
99.8640485501625
99.8104027419032
99.7888135105099
99.8500972310685
99.8479294241266
99.768344942636
99.7696302206045
99.7867380023948
99.80478013898
99.8227412286031
99.779567829309
99.7386321568934
99.7479514608824
99.7642606922923
99.799477334163
99.7921701736047
99.8029972378244
99.8328722444796
99.8357444308502
99.8940133705508
99.8230624460598
99.7198076681132
99.8001229945221
99.797766163384
99.7717144622542
99.8284154320756
99.8110067191561
99.79590075494
99.862307881598
99.927041794266
99.8550387097906
99.7543087044192
99.7964852943154
99.845383019865
99.8717092749848
99.7866228731754
99.8170891414063
99.8695733579956
99.8851302292651
99.9221478983415
99.8521104439206
99.7372056417075
99.8003498671633
99.8825452046214
99.8083903304851
99.8679502791588
99.8773950679489
99.8461069873007
99.8465902175193
99.8778401062168
99.9005130804313
100.001327043591
99.9451725466598
99.8682849442804
99.8033853126981
99.8266560850348
99.8850288410609
99.8438136059026
99.8447057471746
99.8775667443155
99.9020726804746
99.8835705436452
99.8470805555346
99.8602164174099
99.8125362129737
99.7995856751929
99.8312608115466
99.8175919711423
99.8645730096365
99.90751081385
99.8996600021261
99.8798315238641
99.8614324523396
99.8514980847331
99.8762008116334
99.8794600627331
99.9452987364493
99.9571979795031
99.7928985899554
99.8026265966826
99.8282491490368
99.8368139118999
99.7991257859579
99.7990422261494
99.8220169715608
99.8169870135608
99.8713466912123
99.8305243863089
99.7788587541652
99.8295184927801
99.904705610291
99.8347355820576
99.7810995614537
99.8126716015909
99.7916449141728
99.8382804902672
99.8511160129295
99.8126534225452
99.8208449725055
99.8494552525422
99.8983548494513
99.8606104304193
99.8640227697886
99.9168683101469
99.9232802766981
99.8830984737431
99.8519297282748
99.8200447944233
99.8634243918187
99.9319449314538
99.9110114887344
99.8258435080114
99.8171120420121
99.8797684471087
99.9469960167003
99.9030322839298
99.8568326400617
99.8804692892448
99.8969899105263
99.8924318461982
99.9160180284279
99.893594219106
99.8660704533944
99.8946929788075
99.8850394515429
99.905843044364
99.9310511193249
99.8993184261635
99.8855717297375
99.9137165988386
99.8917008011647
99.8539840719345
99.8569170685004
99.8960044633611
99.9088936288622
99.8693786173732
99.8416210176799
99.8532974645233
99.8890675088729
99.8638684586164
99.836675986669
99.87425334036
99.8840736356902
99.8346246834805
99.8107881958194
99.8204725531118
99.8353137650655
99.8392165348396
99.83600034785
99.8344973739102
99.8379548252419
99.7977572695565
99.7794083452413
99.7911958504448
99.81367222213
99.8397961283298
99.8316174316711
99.7846457813285
99.7622725155544
99.766398793104
99.7755221063979
99.7893349571061
99.7522730587752
99.7193765439613
99.7454701624889
99.7284029144617
99.6738356070147
99.6408461963088
99.6053433216596
99.542992568877
99.4776978835808
99.414911824366
99.3352473889361
99.3022775246226
99.2941444925954
99.2346015822333
99.201594290978
99.2156194261956
99.2274929224615
99.2197840250906
99.1784524221803
99.1363207813879
99.0976614001703
99.0787962362141
99.102453726839
99.1433249076958
99.1555492627142
99.120201882945
99.0293295448404
98.9370656952419
98.8614299283719
98.7649698425566
98.6935155107864
98.5962530667214
98.4474803048128
98.3247388811114
98.2809200980304
98.2497319774322
98.1579258458482
98.0503072395753
97.9601074969824
97.8843882296382
97.8184854536488
97.7624965226098
97.7334779102062
97.7242814484642
97.7503011754937
97.8515731423674
97.935797132132
97.9497064701331
97.961151604688
98.0208838940303
98.1305172626801
98.1886879840827
98.1916108627117
98.1714806098206
98.1586476810108
98.2050272563921
98.3307230983058
98.5365881611765
98.720503657017
98.8251472756934
98.8584161931222
98.8849314074984
98.8502612913256
98.8187782292997
98.9913640922078
99.2364279550572
99.4392742366123
99.6126611559683
99.7558444613449
99.8565582530699
99.8779106799714
99.8786476024027
99.8978578723326
99.9232178488025
99.9428714990481
99.9547693898646
99.9610746274445
99.9673290516613
99.9406093753876
99.9147867964634
99.9299306683548
99.9103585568087
99.9031008721099
99.964475878035
99.9963339188207
99.9474468892497
99.8800035214593
99.8368492233947
99.8617067036895
99.9391211270511
100.029215312553
100.11794579149
100.127380579587
100.134598567987
100.155978705613
100.144798020198
100.19973205318
100.242137515205
100.182176511525
100.131682571162
100.149755084847
100.139539573645
100.063591724554
100.094724122348
100.197888931642
100.197787372835
100.14078104399
100.047797805958
100.064134032385
100.082310123442
100.035283786024
100.081559822479
100.093071819368
99.9975891707891
99.9577893505095
99.9122105256902
99.7692195229261
99.6730848981195
99.5030751199032
99.3021564511924
99.4017006554275
99.6877748108406
99.7028486276368
99.5234212866315
99.5149940067932
99.5644608140585
99.8220832683334
100.297626776971
100.364188016694
100.230636372617
100.462307680894
100.532981180298
100.22748656693
100.1949720598
100.395628991533
100.369798987041
100.122281346377
100.050551295213
100.342067057773
100.490968674405
100.420652332587
100.522025158505
100.455313654078
100.453198643926
100.644156286228
100.243658134267
99.9083288245935
100.621237648121
101.080732466656
100.578283713831
100.44454941497
100.592291682059
101.031615805044
101.548331746324
101.228204843229
100.662950935306
101.099449006145
102.788207288765
103.188218179108
102.388678925812
