900
4001.38730172967
648.873616496703
1
128
8
98.4761844782476
98.4758511827173
98.5095628816687
98.505171731287
98.4408833671615
98.4834577009267
98.4920934972961
98.4977721021925
98.4133348809811
98.3836783363676
98.5007891964075
98.5641184331764
98.4878413491634
98.4214206075598
98.3706309832729
98.4038155829985
98.5896264533706
98.5451824936015
98.3920487605899
98.4897604375885
98.5430310058055
98.4183629645558
98.4575160073575
98.6390556403711
98.5992291430441
98.3649732059205
98.2963506333443
98.6060346243671
98.6853759136217
98.5748300349524
98.4681223954708
98.4778106718877
98.6992826057138
98.738888093331
98.4011239596629
98.331006963982
98.576559831074
98.8080736887005
98.581562141389
98.3476084988541
98.670371150552
98.7556964960778
98.5738196378607
98.4621692700802
98.659273540187
98.7456849257259
98.7555951722005
98.6313541277439
98.4560172740822
98.5632495295932
98.6811093870688
98.5481211247621
98.3346749828621
98.3432454087637
98.6844451271508
98.9182923555751
98.8457336490629
98.7030216103873
98.55202921822
98.5324468539796
98.6843414107726
98.6070717992329
98.5246677229455
98.6035341286162
98.6349853355021
98.7173758675061
98.6045466264258
98.4409567436637
98.5407125968891
98.8816740240338
98.7305136140985
98.5851567178064
98.8575624674275
98.9717503549071
98.8972002447058
98.7908276175722
98.4889943968827
98.1919305457076
98.2492012029911
98.1319444397596
97.7138870258486
97.2811405926151
96.8132728138608
96.7363787785564
97.2708762217979
97.503986298607
97.2995787377559
97.3177002554302
97.5966908015166
97.7734459340229
97.7982754281584
97.602577800382
97.4007819001013
97.0837383554734
97.2545565292068
97.8214827446363
97.7655147765746
97.7259333539021
97.5760879358195
97.2575105726556
97.30888544347
97.1386561314195
97.0361063564784
97.3678687795403
97.5553042910121
97.8314958109816
97.9741028759817
97.9861223595752
98.0897867804307
98.0952191089104
97.954668669383
98.1448788961449
98.3458028523866
98.2301875598137
98.191414465018
98.1019571893905
98.1631433909836
98.2811828931819
98.2766438075699
98.4250209092624
98.3437927420578
98.4068525642099
98.734146910548
98.5390349921444
98.2419652971744
98.4023090526238
98.5536083816987
98.4927979551502
98.5042217741641
98.7699679385757
98.6866977189228
98.3595497971356
98.3375981539224
98.3767490952629
98.3619130887508
98.4446773995531
98.4903478447401
98.5449068352423
98.5148931521656
98.4338872146633
98.4832637903099
98.5337123684076
98.3221274429942
98.1656818969888
98.21280282115
98.4209022214076
98.5708621769723
98.1386610030967
98.0997454637676
98.4004070575156
98.2221275391768
98.1293974208824
98.3099033053858
98.2216030346146
98.171892279492
98.3083540411851
98.2862897243777
98.188009752602
98.1347427665233
98.273932058264
98.2487247015187
98.403666401462
98.4683905843713
98.2195218036889
98.0872625559127
98.2064975124429
98.4078799920723
98.3562832068671
97.941199022539
97.8528073344305
98.1674641243215
98.3875233382662
98.300337985341
98.033224684474
97.9005378600326
98.0713563970568
98.1080073488472
98.139369496292
98.1109872708964
98.1232563961799
98.0261328588352
97.934103858672
98.1969175905755
98.3783401086382
98.2548167347294
98.0392048183042
98.1610509786786
98.1378172918408
97.9933437031555
98.0525747668247
98.0970331413065
98.0470905678164
98.0535233533352
98.0842221545201
98.1360949919127
98.2240452874642
98.1601186969137
98.0117111332049
98.0346652289587
98.1303132274166
98.154067746408
98.0890202062627
98.078825192177
98.106835570513
97.9911462607728
98.0043578218288
98.1751655855952
98.2921540527092
98.2649873650539
98.1487478338629
98.1794060035863
98.3781656392942
98.4112435000309
98.2833107516803
98.2216290604382
98.1377052166985
98.0302952427344
98.033812473439
98.0939919933014
98.2391988666234
98.3095138506845
98.2323864610123
98.2585044233387
98.3451638389239
98.3123273563769
98.2737793408475
98.3246250252808
98.3223915551446
98.2027438509747
98.2260136595609
98.2922314279263
98.2963675714208
98.3413205342681
98.3312367550573
98.2386062582991
98.1755512527546
98.2002033522727
98.2554534243705
98.2889162314782
98.3838853198834
98.3322954720335
98.2656126378094
98.3327339893104
98.3500391276061
98.3734185206771
98.4120836124293
98.4146907424176
98.4454341653464
98.4452853464213
98.4126506742438
98.2904697830136
98.3291606276948
98.53590636839
98.5209066198666
98.4057502886389
98.450167214447
98.473342443458
98.4617299571184
98.4771243255567
98.4536781232252
98.494606483467
98.4425137872318
98.3494299172538
98.4374603877309
98.4765265935572
98.4258305330719
98.4147273071473
98.4804814309878
98.5576318048064
98.4592123797826
98.3791143299438
98.4666026339975
98.5172503611842
98.5116361626483
98.4853312968574
98.467212990027
98.4728724994807
98.5341391978778
98.4528464967192
98.3374070427024
98.3882580985984
98.3722142041907
98.3745371530917
98.4304742337269
98.4689395131775
98.3873297376826
98.2732796017254
98.3041289480169
98.3090769883405
98.2690422500612
98.2402954372479
98.2574658618941
98.3817452718175
98.4522841247489
98.2933479322792
98.2464472147231
98.366830132129
98.3201662258281
98.2834216129766
98.3809318484777
98.4203313402716
98.3964268483239
98.3303978031462
98.3052502104156
98.3651141905025
98.4387009419002
98.4242562366748
98.359325828323
98.3524167663581
98.3693182875332
98.3741155683104
98.3638925292171
98.3615276272477
98.4295143858855
98.459762291987
98.4949204717586
98.5032506661599
98.467144398788
98.4560043133376
98.4147960446683
98.4349569195683
98.5077450140806
98.5249928335291
98.5204851373652
98.453891777394
98.4008848317371
98.4874615543538
98.5362583913213
98.4901874192717
98.4819198798431
98.4990661395742
98.5126511463045
98.5638808351912
98.5540508545109
98.4902801666181
98.5249121570827
98.5571710556796
98.5527919235228
98.5383176400708
98.5667316456037
98.6169320383517
98.6050436232793
98.6089151411057
98.596209787316
98.538498405041
98.5107537269008
98.5066330855638
98.5473894437233
98.5777223110056
98.5791326862335
98.6123104074909
98.5921867719864
98.5701569278136
98.5869891401325
98.5382915422772
98.5047265908077
98.5525421359624
98.586958302073
98.5943662689205
98.5603273094002
98.4943919946318
98.5314922245668
98.5428953112563
98.4511941472798
98.4666777874822
98.5783195660564
98.5844586474733
98.5048241938486
98.5291061422025
98.60957400152
98.6279335009126
98.5873687024927
98.5804465710834
98.622167886149
98.6452832568603
98.6003910575193
98.6348921172157
98.7175374840166
98.721911246094
98.7389705824311
98.7755399574133
98.7569114120034
98.7443389773487
98.7912424199219
98.7738968145986
98.8109500608914
98.8684889643395
98.8008900422107
98.7844061799349
98.868711278638
98.9241073404396
98.953040869561
98.9620894934119
98.8350784785477
98.7160355932258
98.7470996865297
98.7797786194526
98.7827824422766
98.8169787996513
98.9039730770532
98.9704752268515
98.8602373260998
98.7717140248962
98.8247613400404
98.9048918267722
98.9697202278581
98.8773806866524
98.739366887829
98.7992048002482
98.9250918794114
98.9021136420133
98.8768558230088
98.8767664468295
98.8518931864328
98.8789335045249
98.9198838790257
98.9423480048312
98.9533492749893
98.9442663699062
98.9290278759177
98.9732090010094
99.0107367059501
98.9530961993994
98.9855172538307
99.0546259310351
99.0305218886051
98.9536658371892
98.8682593190742
98.9382704088582
99.0387256720384
99.0258162609859
98.9673843251821
98.9818782241062
99.05454311992
99.0077561145008
98.9102986206774
98.9383234336577
98.9433538666659
98.9057921794405
98.9575802195333
99.0771458692098
99.2048766397795
99.2898955756968
99.1341937671667
98.8872780247798
98.888402674522
99.0017645231166
98.9971357130762
99.033852067833
99.0215249642857
98.8675545551678
98.848216904272
98.9261494365095
98.9962905193122
99.0325712167657
99.0068315699037
99.0582852610768
99.0828970551093
99.0204135629788
99.0523391733713
99.1096117834673
99.135290101255
99.1878124961914
99.2434058052125
99.4178866610947
99.5285684262298
99.5845362911374
99.6736220165126
99.8005678048739
99.8830994160782
99.8458064542391
99.7766095672131
99.8864839604677
99.9971986584546
99.9077489523585
99.9868463241248
100.040787429124
100.011097212019
100.167463339716
100.334629038688
100.386208414459
100.570240903065
100.535635486909
100.373059793733
100.55000451421
100.694562704052
100.813468944095
100.879421492026
100.820787069441
100.949149446964
101.321647463729
101.628161683115
101.568462757011
101.500176867163
101.562710966428
101.314399980717
101.341876741437
101.295930327407
101.010315259373
100.948526237902
100.722203744281
100.36769769596
100.205045620756
100.134835554395
99.9052106467172
99.7815280338925
99.7720915805438
99.6917533597727
99.6538640100661
99.688513764257
99.7702905799025
99.9917878859767
100.024041781671
99.8543455516178
99.8565252921093
99.9911277707624
100.098508070912
100.041017302069
99.9546884367126
99.961515809611
100.246742547286
100.39629468786
100.44921152597
100.6102523857
100.73175545496
100.97669741193
101.241922412595
101.240548858644
101.400853962819
101.414870827554
101.277064564114
101.661501965631
101.579099776323
101.390375923569
101.496164807141
101.135599712822
100.963711680398
101.084198437554
101.251693441414
101.067981496335
100.568929006115
100.401190701219
100.786772889868
101.119736608521
101.413571392883
101.353736769511
101.196646942324
100.883703002616
100.679180410468
100.656606482356
100.513195388364
100.247467532876
100.235626660044
100.059748993956
99.9846694098869
99.9720016424163
99.7951789644938
99.676953255992
99.7483038011417
99.7017328215738
99.5599560410957
99.4470784715636
99.4070747165072
99.367638496668
99.3276146523248
99.2143226087377
99.2390058960698
99.211108498887
99.1093941578674
99.145232014622
99.1464226600116
98.9822745538245
99.00694495885
99.1181372464246
99.066292600115
99.02152087126
99.0711852834944
98.9722117707236
98.9514315577831
99.1415891363351
99.1599470814267
99.0975669470079
99.089519674254
99.1002474931723
99.0608878417891
99.0143646458871
98.9943986192962
98.9856192244796
98.9787889982928
98.9132284900416
98.9136731138284
98.8847138060739
98.8241087579112
98.9371148931419
98.9243143407518
98.8942080993845
98.905394154858
98.7788195015014
98.8890905789118
99.0783840653297
98.9970275305834
98.923077181789
98.9304452659729
98.872104567834
99.0504547598816
99.1676777263294
99.0601718755358
98.8377715752428
98.8481023855351
99.1426225277881
99.0449641389617
98.7993653222098
98.5608534368933
98.873183697955
98.9636893195938
98.735427200178
98.5280994374097
98.5116013618699
98.9175550934881
98.9019012170217
98.4556779101173
98.230294433039
98.6976002433943
98.6067517801536
98.41804706406
98.468801680033
98.5234676239301
98.4132895377026
98.2765828327784
97.8982425302607
98.125591443716
98.4891442656789
98.5147555614891
98.2696623759644
97.9840656123963
98.3869418707758
98.3049139057917
98.1263194206124
98.2822960309923
98.3453054562639
98.4490131816285
98.3879111732223
98.3039747079459
98.3988208644697
98.4325144873639
98.4326536347378
98.3944074143983
98.3947007787351
98.4092366335741
98.3294034019087
98.3138682798933
98.4799508409461
98.4589158915521
98.4681588254904
98.1011743865171
98.1627055480717
98.7694506994362
98.6078201949646
98.3702871162561
98.0692206641701
98.4005802259036
98.742987687995
98.581977952817
98.4145921369059
98.2343015227685
98.3347122005897
98.6653444952627
98.6157877448973
98.16370491031
98.4275135781883
98.7605422320673
98.4357759756301
98.4266442870353
98.3822094601101
98.4809452792437
98.5794590884155
98.3907365515557
98.1835475931389
98.3191390550131
98.5083864524616
98.3350162814382
98.1188279524034
97.9834554772848
98.3823230853317
98.2972783982506
98.2011122470591
98.2397639627776
98.0938175973073
98.1784214936183
98.2809006483013
98.2024168134019
98.064943283439
97.977806030486
98.2599831345968
98.3201752244864
98.2052477713765
98.2528617726055
98.2961788528935
98.2653804245546
98.4280449905421
98.4627252009338
98.4124166949906
98.5245985488736
98.4715053148088
98.4330760144118
98.5416040886216
98.5419580870325
98.4826577602089
98.60164207913
98.6991074871321
98.6560894113814
98.6657369679047
98.6541595421021
98.6107369187652
98.6852349981898
98.805789564571
98.7700528079122
98.6924619975751
98.6722926056319
98.7005501482409
98.7069636923288
98.6930859486054
98.6858069456705
98.6738461057906
98.6570698497266
98.6980532218098
98.7039583207656
98.6295432880752
98.5575777905931
98.5181893055362
98.4864317343632
98.4372559567326
98.3812266774246
98.3520961379726
98.2864096333155
98.2432909324792
98.2346250260843
98.1525379460275
98.0483267939585
97.9551878032889
97.8354158087681
97.7192462268813
97.6112274487281
97.4859937453411
97.3183369169199
97.0883557124225
96.7989736238661
96.4531376443689
96.0611342292875
95.6298620120049
95.17820600201
94.7499611463213
94.3216615116212
93.842405241522
93.3104620161298
92.7108565743689
92.0540054955091
91.2793074487383
90.3023220792472
89.1465047010247
87.9811479902997
87.2471267728158
87.2057210746499
87.170212505794
86.5239153136475
85.623492164601
84.7397472214619
83.8458456780641
83.0356960041553
82.3128013871681
81.6309262885353
80.9857438479616
80.2638294844328
79.4296012286535
78.7288684919757
78.3171945732312
77.9515307108046
77.4291051748662
76.7529038112722
76.0078958495083
75.3227566223159
74.7697490164049
74.3577517996839
74.0293288185218
73.6977243887812
73.2849449661931
72.681038638967
71.7148414984422
70.4257491997021
68.9686794328441
67.4793426629611
66.1286160768839
65.0201605261873
64.0719188445408
63.0881486324461
62.0260018636619
61.2189762317356
61.0724430956669
61.4972437424265
61.9010953965064
61.8522380078952
61.2803840611043
60.4615225322329
59.9902658752987
60.1333973037095
60.7320386453909
61.5260839032998
62.3004966068187
63.0873272000746
63.891665361885
64.6718146766503
65.4851920937314
66.301937592169
67.059253001198
67.7614600980106
68.4589691742898
69.1352178807263
69.71673331087
70.1928899349136
70.5707327951697
70.8291854183976
71.0234680697158
71.3656171081286
71.8371746320457
72.2544482470594
72.5506752611054
72.5930974363849
72.3525444308603
72.2136773625872
72.7041625368884
73.9367147030424
75.4068425853286
76.6740610471181
77.8035458940681
78.8596907982029
79.7674698707433
80.5312906959584
81.2151980304482
81.9079190998718
82.7309854278109
83.5948301184212
84.4340869440593
85.3642425671936
86.235168625787
86.9364388674066
87.6829076637001
88.5121725108657
89.1733990210154
89.6772921124641
90.1557150519073
90.6164461923342
91.0838603479359
91.4276889053456
91.5993938281428
91.4717376302597
90.7743592741177
89.2015922328696
86.4957812934898
83.3191526646628
80.9570665065322
79.9766543325561
79.6454842149938
79.0344179347329
77.663773843601
75.8482967805946
74.8304630179057
74.8784148613271
75.5042978142944
76.4502412513493
77.4965718421681
78.4188649964208
79.2578363404986
80.1971176795901
80.9476213577084
81.5201995609228
82.0588397155013
82.0730768067204
81.7180642895895
81.6783984792218
82.0043337638493
82.5627224328204
83.6522693330884
84.6933594018878
84.850872974441
84.8447040881572
84.3133033272356
82.2661239070436
80.5111529179847
80.6080250616069
81.7811392917089
83.2891050093905
84.4213013264524
84.8210279181775
84.7091789431398
85.214520157966
86.4003130164
86.0918504969933
85.2263610569471
84.9144600323186
84.9228765705826
