900
4001.38730172967
648.873616496703
1
128
8
98.5902000632914
98.564104770017
98.5813790122134
98.555185696201
98.5420203996028
98.6442097030227
98.714644583284
98.6720023899384
98.5855796026962
98.5226769408787
98.5817235810814
98.6877607475672
98.6595085964524
98.53000571506
98.507394176103
98.5892240223721
98.5897444502697
98.5880689263931
98.6253423994559
98.5358157658823
98.4851099818926
98.6273160210948
98.7160253313008
98.6299040689018
98.5837984208706
98.623542533482
98.662934246593
98.6400452576329
98.580963727116
98.5097283667977
98.3641306777821
98.4239469490057
98.6603145765414
98.712365639426
98.6772514639896
98.7390710546148
98.6542668215787
98.5341515436696
98.5757756045599
98.7186762254653
98.6346359837139
98.5542009150942
98.6191162932422
98.7281946608968
98.7307940057563
98.692945640174
98.5797411681229
98.5776069588958
98.657031797736
98.6862414765192
98.6673190752334
98.668081297549
98.6943960427824
98.6330465200659
98.5654377342245
98.6697570171432
98.660712478204
98.5634927997673
98.5393150117922
98.6730668442341
98.7316015682715
98.6750648255495
98.6753078347268
98.6450065130004
98.5840002381745
98.5290581683354
98.6148362202849
98.5788261439833
98.4864489340604
98.6970325011594
98.7137498752428
98.5484306467156
98.6254684855159
98.628164591641
98.5495357668152
98.5488521024278
98.4431350383715
98.2663927813517
98.0982465221071
97.9384505677061
97.6956393952377
97.4697904601553
97.2675632111102
97.2291516336514
97.5281053209492
97.7124225112409
97.7256582564292
97.8661504273119
97.8246548917114
97.6971960545773
97.7179464900402
97.7374468047966
97.6299948156363
97.4938158157734
97.5840547127243
97.7250140836274
97.7707554784453
97.7817323975341
97.6474355996569
97.5290373758867
97.5661184576007
97.3177697405908
97.1138552566774
97.4234325670732
97.7223319101958
97.876330707404
97.9250202913206
98.00270944531
98.0125243846693
98.0261292621306
98.0392927412921
97.9990873520298
98.1433982499441
98.2472919906844
98.1962273902529
97.9479979932034
97.9276994281505
98.2996397682066
98.3569302624582
98.3544866667821
98.2697884056472
98.3243379983433
98.3193775294851
98.1394799874328
97.9205071602604
97.8802090203915
98.2307666586771
98.4138472944644
98.311116848904
97.9232496171744
97.8769271997255
98.1023494637392
98.1699734049231
98.1300460651721
98.1822106659343
98.2512894112126
98.3405807099518
98.2306881009943
98.0605034656223
98.0882234017308
98.0803216833133
98.1706141979
98.211669323312
98.1786505628945
98.2124179291891
98.0838343289284
98.16465412888
98.27817825152
98.2691855386135
98.1849470654302
98.1595040605643
98.0852513144009
98.1500618636867
98.1784595694582
97.9766022403425
97.9135606881657
98.0523866311209
98.2034950280668
98.2008582123919
98.1019531550408
97.9070499604374
97.8331108296343
98.0782656318957
98.2615817215599
98.1000902316916
97.878012166198
97.908256065758
98.0808464239271
98.164527907772
98.1926319323587
97.7823009676281
97.7981254387562
98.2382872636188
98.2497233579881
98.1122332684699
98.0363503674111
97.8485339399868
97.8543559577
98.0670839987823
98.1008166748225
97.9698982415965
97.8573599598865
97.8924796394514
97.9362907205648
97.8820349076825
97.9679429260271
98.0482016743033
98.0782543002749
97.9992571877247
97.8898443481724
97.8960072134108
97.8274613364101
97.9225298803686
98.0910910426411
98.127191115576
98.120134312099
98.0140575643386
97.9683822743779
97.9316942440304
97.8223612642658
97.904692553452
98.0775911575772
98.0253082543796
97.9348312152297
97.9646974811682
98.0088504346639
97.9540686129614
97.9730923910746
98.0935674829487
98.0909823966653
97.9214713409448
97.9159389878502
97.9830041875051
97.9489285052851
97.8883076349394
97.9374872077643
97.9912083911575
97.9110513684638
97.9211414606823
98.0091169652243
98.0321478381427
98.088915199004
98.0954950657934
98.0218011040125
97.9677052191471
98.0373505170643
98.0774809410919
98.0740789353717
98.0849811425639
98.032450228438
98.0335321109319
98.086509583626
97.9347619490671
97.9507399446539
98.1098820380276
98.1029232450398
98.1487405654611
98.1277886537982
98.0997404925917
98.1028671818671
98.10562831012
98.1099966088406
98.1440798040182
98.2292391358708
98.2480397748509
98.2575115173281
98.2371677268556
98.3473027766236
98.3306749716293
98.1991219702893
98.2507103176192
98.3278556407973
98.2723486881012
98.2219449150426
98.2506780818939
98.1699688236881
98.1484389132021
98.2822048302422
98.451235128858
98.6117925500488
98.5544728172983
98.3965253132938
98.4028772025858
98.5342213328917
98.6082450293203
98.5992456020574
98.549818827762
98.4910492515913
98.4404692248029
98.4995253845491
98.5671345800371
98.4820390583737
98.4458239039811
98.409959097083
98.3535006108928
98.3505694762113
98.4630467836734
98.4233402884005
98.3302019515635
98.3056541812171
98.305382152147
98.3318543044767
98.4068910464339
98.3794593478682
98.279905861511
98.3458088969472
98.3443835972083
98.1859047549309
98.0977465485128
98.1272272025952
98.2203810552875
98.2322900186393
98.1834465684359
98.1671659677714
98.163482983881
98.2121748219101
98.2961455975138
98.3346050874297
98.3289863472298
98.3328300671034
98.2754135350512
98.2441180754783
98.2602010353792
98.2684033305899
98.2775477461873
98.2559867464357
98.200338949892
98.1705930132318
98.150995263935
98.1620482406883
98.2577442045307
98.3062345756445
98.2599186966545
98.2595234522981
98.303013718056
98.3177286391018
98.2834652135982
98.2829284868796
98.3153721615599
98.3067924587803
98.3007745442373
98.3287227264398
98.3531309364624
98.3161777227235
98.2932061796918
98.3295879618678
98.3413448542321
98.3117593963252
98.3332754678767
98.3589090195163
98.2976897281506
98.2742478915719
98.3154334993453
98.364606546039
98.4018719482438
98.3742371966385
98.3321136368309
98.3624413514658
98.4033521267807
98.3808050648436
98.3400894392759
98.3719444631123
98.4325693762738
98.4349557242643
98.4128719609708
98.3993591665861
98.4174624366724
98.4428201395891
98.3916145140363
98.3625394708948
98.4079030408728
98.4240657994
98.4074046204777
98.4246284915893
98.4878108451798
98.465201465852
98.3784650277617
98.4126700136914
98.4527342764608
98.3882851015997
98.3735016167316
98.4143047728472
98.3963671596
98.3515399019162
98.3509200344749
98.3826513511248
98.443301800404
98.4982744206656
98.4769398180867
98.3840035188376
98.3503763788039
98.4394432218975
98.5092151359374
98.4884630611634
98.4546918825146
98.4670375278946
98.4979761994942
98.4460395556984
98.4602884981484
98.576341493596
98.6029277140843
98.6027373506571
98.6008338371474
98.5064622789498
98.4054093213597
98.4982015415862
98.5799412686808
98.510446686895
98.5038760608255
98.552536844142
98.5748546849151
98.5713386593809
98.6327339132116
98.6751666913039
98.5679595610708
98.571507229696
98.6721922718575
98.5398391056177
98.3155343257785
98.3825584949887
98.6260882982275
98.7268301197581
98.5794744029882
98.5023457733527
98.5921521106598
98.5916473638529
98.5791067171728
98.567564991561
98.4902319164963
98.5692745914318
98.6603590172962
98.5692517183648
98.4390539371238
98.4689176139146
98.602901835064
98.685200549853
98.6257662966811
98.5783731373542
98.583654419818
98.5292575770886
98.5570695661506
98.6464665074329
98.6141012960244
98.5728731925989
98.5934340613707
98.617309534647
98.6622008268807
98.6831197446984
98.7372477235538
98.7252090355551
98.6482135695838
98.6189142376117
98.6129512588245
98.5853967091255
98.6197744338131
98.6545474329204
98.6239581123483
98.6622324926046
98.7522896800282
98.7643987860516
98.7338056205015
98.6732136971302
98.6830352680764
98.6632257855774
98.6506079166747
98.7029281960582
98.6883655587284
98.6493735511574
98.6348162412149
98.5600532034052
98.492374833759
98.5416262232408
98.609486168241
98.6501268927379
98.6758952268449
98.6221032403006
98.619275611076
98.6978005375603
98.728227750267
98.7050689413965
98.6545271200432
98.6478717629436
98.7539179613245
98.8545440140139
98.9125333058949
98.8838069434952
98.802510386085
98.8551856323318
99.0062223868133
99.0880606711165
99.1138961383225
99.0223481999025
98.9658626146425
99.0449506741646
98.9300975779082
98.9088610702784
99.2688802641091
99.2950988867005
99.0796875353053
99.2340966031326
99.385568071012
99.1528630315534
99.055596001619
99.1933051690302
99.3026879503573
99.2797182864789
99.0522345933057
99.1800026622088
99.4627087140088
99.2339430395498
99.1407107534563
99.3223475937943
99.4459189144285
99.4872211942348
99.6773502603311
99.7995492552882
99.3271761533443
99.0805929901367
99.2925689239473
99.3282573868104
99.2321605939714
99.2104509981143
99.1431384944702
98.9269014001022
98.8843275965611
98.9310322440558
98.9461911936524
99.1082997920766
99.1453789088661
99.0911391227344
99.0954531972514
99.0303211367251
98.8870539686259
98.9068110244705
99.269703849432
99.3052021987376
99.028826512066
98.980976067923
99.041267918287
99.190870595446
99.3555614341582
99.3837737244015
99.3695757914338
99.3952065831295
99.5422499232948
99.2178491995121
98.9685042393158
99.4826085933344
99.8246266687508
99.6941305343496
99.3863144450648
99.4911462824331
99.9385137625863
99.646270994036
99.2168134758437
99.2125940356551
99.5778103424515
99.6548374392042
99.1977888631284
98.7684180841437
98.7015809748228
99.123650990105
99.5185309873335
99.4697465905504
99.4556908502492
99.042000908746
98.9135299525328
99.2184338707979
99.20237822343
99.0763380932604
99.1210135041204
99.0297576565981
99.0317188972022
99.0966875489836
98.996309239999
98.8922614663839
98.7170106861794
98.6668510373593
98.852225470151
98.9090659546868
98.8135071687713
98.7759244770522
98.754641980347
98.7361767415903
98.8050776511653
98.7612987067422
98.668953864014
98.6857142140443
98.7162950248224
98.663251967167
98.614893985083
98.6475279824617
98.7591069545055
98.7071650851699
98.6059136474358
98.5789656621059
98.5976102897673
98.6043197546921
98.6178611529972
98.6840173266574
98.7016498107167
98.6901343787674
98.6920080289287
98.6893662208971
98.7162830827752
98.7558038865986
98.8041644124531
98.7982894418451
98.8072711897178
98.8721863809652
98.9027610676949
98.8965626526511
98.9863450664706
99.0960650569521
99.1073503668146
99.1500179923377
99.2581961962793
99.4320406894953
99.6685992845267
99.8494092955383
100.041803644175
100.361580008292
100.675790964821
100.950931036215
101.237949336403
101.484841828849
101.67999373968
101.658728340195
101.358769770946
101.138456339967
101.017222895434
100.93992505189
100.891245732808
100.733209971143
100.311271406172
99.8081553066549
99.4093870319296
99.1336282449994
98.9370474670322
98.7681036107684
98.5683778502718
98.4865599109675
98.5135421669168
98.4111219605591
98.3218330140888
98.3069575083834
98.3191886525511
98.2487593812031
98.1852700913954
98.1280603235448
98.1367105999354
98.1548393364584
98.1409875204679
98.0598450708631
98.0426249669548
98.133393021737
98.0926772171894
98.0687553172379
98.1512238745494
98.2062704380079
98.1372718941987
98.0840902508591
98.090562356513
98.1131728099259
98.1234076153355
98.1877666165375
98.1765874774952
98.18636852503
98.3038709668426
98.3428274272674
98.3575961208754
98.3932323198818
98.4069086354771
98.4328656038956
98.3944390767659
98.4648254272411
98.5951200813749
98.5677193416965
98.5042529233668
98.5054919641504
98.6040981908998
98.6082582753474
98.5681237761421
98.5193458764054
98.5015540773745
98.5165954300651
98.4903984452475
98.5181200978499
98.5496789165497
98.5887937775032
98.5813951889546
98.536749956221
98.5832158090821
98.5883644622941
98.6027793695761
98.6292191833956
98.6112301653217
98.614815824108
98.672687716967
98.6724009584285
98.6259102617296
98.584278625964
98.6425513702967
98.7451272119816
98.7334310262936
98.7890937812772
98.7867294866662
98.7539009064876
98.839789137523
98.8899153560765
98.890444403669
98.8595998559417
98.8224453531119
98.8091958864384
98.7979746440798
98.7957976211844
98.810104963651
98.8120440990268
98.8311803075871
98.9497002743834
99.1375158188239
99.3763755218023
99.6807651962171
99.95041210864
100.111543264217
100.291455563319
100.479746670854
100.516187455556
100.370608778805
100.226575980343
100.118851687316
99.9517068713678
99.7189612160834
99.4674333395075
99.2131021885692
99.0248324172685
98.9302420349165
98.9162702716976
98.8821360262543
98.8247146563819
98.7784588908361
98.7627749566609
98.7400527174164
98.7210155610556
98.7000779941275
98.6728193312676
98.6613351869614
98.6186557023016
98.5699797502712
98.5025013989184
98.4244301746712
98.4086773596617
98.4164386158629
98.3864246514718
98.3446553675563
98.2951072047483
98.24406794492
98.1635098955607
98.0862769906379
98.1012768864031
98.2328463195118
98.5157428607024
98.8896574826818
99.1012385542791
98.8923592374945
98.5343351666934
98.4906713891061
98.1753887226583
97.3700236772207
96.7633813456785
96.2993913431583
95.737750460535
95.0784370845104
94.3952136230623
93.747444230922
93.1910125117071
92.6686255797394
92.0608952630845
91.3329837805099
90.5181287242536
89.6732640695268
89.1329176855244
89.178643463806
89.2674509909705
88.8976373062614
88.2913144738658
87.6779296767239
87.0672019804098
86.4420496852008
85.8360785246552
85.2396235720235
84.5513601508502
83.7236132084512
82.820109811823
82.0447158573057
81.5321627376533
81.0861289704469
80.4574324555551
79.7325741599993
79.1282276812606
78.6416233828411
78.1846725311688
77.7862279774399
77.4997892472456
77.3502426203013
77.2474203274009
76.9668694687339
76.3996848908553
75.5986186931846
74.7341688082751
73.8956519856435
73.0645014462928
72.2706808964111
71.4786941286776
70.6747079191673
70.0134122110178
69.8510059954215
70.3693031236632
71.245382491981
71.9150629443791
71.9815659937968
71.5604111154029
71.1857223480832
71.3226852256864
72.081243946887
73.1731166059314
74.2634981957372
75.2460747064507
76.1190392683144
76.856366637192
77.5285057259484
78.197443433598
78.8207053670902
79.3548320420669
79.8180898002905
80.2264141964353
80.5545569543163
80.8375957619069
81.0637673383574
81.1839553781181
81.2099843756641
81.2168628192147
81.330379755356
81.5381900598316
81.6802879545565
81.6640408086313
81.4184045144602
81.0551024949436
80.9666908716732
81.4622908162348
82.4096110019192
83.4026794980224
84.2474630967563
84.9017414905084
85.4480223837562
85.956583252241
86.3876997574647
86.7732966413139
87.1740319306488
87.6369410980805
88.1586384869819
88.6394221932339
89.1028018829371
89.6880113176438
90.2834303641297
90.7598429516898
91.1992909696556
91.6254016367659
91.9859210817454
92.3793833110504
92.7809860138148
93.0336621251954
93.1674979679769
93.2176521867102
93.1014933068711
92.5988852256713
91.241864729247
88.903350771216
86.3126098304018
84.5789307658101
84.1714871610336
84.4205025836035
84.1589830359744
82.9486230452839
81.7755901797732
81.720895339769
82.4189057044299
83.0520054221373
83.6789978076108
84.3222594556098
84.6414584524472
84.9683643102889
85.4955347336169
85.8850459441489
86.2631690722304
86.7793788162465
87.1386029551573
87.2531343841364
87.2859008589639
87.6194643713747
88.224521733078
88.4963389146917
88.5649253515007
88.6679439432945
88.4726263988157
87.7963375064289
86.1618987790304
84.7249277420619
85.0566666990518
86.2316252055472
87.1972229442229
87.969409961372
88.3385351866805
88.5106846654444
88.9595147926814
89.3426059487068
89.5199275952136
88.854655121464
87.7857930302603
88.2470324062458
