900
4001.38730172967
648.873616496703
1
128
8
98.697691117769
98.7500847445686
98.8082686539195
98.7731179813137
98.7303699313463
98.7252753283607
98.7190200756701
98.6879476882338
98.6689316035956
98.6971033903331
98.7610210351872
98.8070926929916
98.7564932194542
98.7641812443537
98.8197912167916
98.7201115732422
98.6573941082547
98.7165630487249
98.7644690224511
98.7867087901181
98.7845529022298
98.8330675315668
98.8914245046356
98.8317242731892
98.7333328733307
98.7785388319078
98.8524379433652
98.7680751647747
98.7179463846466
98.7827739248024
98.7892298192079
98.7611123991376
98.7525675025504
98.7663755648983
98.7702770853251
98.7881254141946
98.7501915582255
98.723090712352
98.7965341194611
98.8704947288657
98.8378501170477
98.7845304871339
98.7624092330271
98.8111146276819
98.8173327454461
98.8220621155563
98.7906766304399
98.7711248113436
98.7640736188484
98.7598978189366
98.7471460394712
98.7777174003902
98.8360810139863
98.8624903452224
98.8312227749725
98.74300775762
98.7938123423656
98.8217752466008
98.6813660398232
98.6746656534932
98.8513492650344
98.918281076574
98.8027123259685
98.8140875979565
98.887910514992
98.9320069861788
98.7949829159985
98.725164510199
98.8710014939124
98.888313527397
98.8599041627818
98.7759602959607
98.703728610235
98.7827535018175
98.755831240129
98.6040371836559
98.4712563648531
98.2953965737293
97.8915087651578
97.2750609088066
96.3053637279253
95.6121888920938
95.4834126531184
95.7505212001265
96.2538580230711
96.488591295866
96.6077078224179
96.8445758542601
96.8807314941537
96.6771354639207
96.6242505040073
96.5562238141465
96.4217856340995
96.4117391283942
96.529674022713
96.5021976999429
96.5962296612752
96.626726726582
96.5510961596855
96.4051338134959
96.1434103292483
95.7286868053424
95.4192185035227
95.7240474680457
96.4672838667253
96.8585385521483
96.8641709003384
97.1147427860337
97.2877039612949
97.3452284715342
97.2639814556843
97.2352692743179
97.3366335850605
97.3485958069755
97.4240123843695
97.6103437265788
97.7791791413048
97.7700099915208
97.5294948402066
97.6368440769827
97.8059355138069
97.6360533540301
97.5741101514005
97.6573041797613
97.743355867779
97.6276116542707
97.7763487712751
97.8603086020426
97.7922238822973
97.6074754574903
97.4950421523266
97.4590116207178
97.5537468645661
97.6852233137681
97.8277809143681
98.1033926227525
97.8962092898304
97.6992544191107
97.6673243909445
97.448690414109
97.5827568840529
97.8725387218625
97.9441697945998
97.771190818392
97.5493760926525
97.6661321090153
97.8378626781098
97.8483636507348
97.8220030372501
97.6732798252847
97.5929640047498
97.8394843131915
97.8700690939112
97.6108165536393
97.6211460039371
97.7734408661377
97.7318881857099
97.7180288308529
97.6992968989645
97.6984457949016
97.7097413504985
97.671251455003
97.7440348550022
97.6419805352773
97.5642799113578
97.5978423051992
97.7626142666802
97.7642955356176
97.6365919526998
97.5714621222109
97.4885778018912
97.4967389923417
97.4872604063264
97.3947850185987
97.4576130032169
97.5451089893579
97.5216240188916
97.5200468764103
97.4516858191764
97.4505428109231
97.5348568897565
97.5905647672295
97.6225555824954
97.4188993837906
97.2786948561373
97.4794072424676
97.597562736124
97.5434867310083
97.5378133197911
97.6529997441878
97.6404828461136
97.537446792468
97.4238322668836
97.3441266170925
97.495337859151
97.5059006562685
97.4489559976431
97.5737184486383
97.545130509457
97.4648057934385
97.365078506569
97.3623728620843
97.410408952282
97.4121818347738
97.5518141508868
97.6390090015455
97.4931799099901
97.4212475858546
97.4676366312858
97.4722138753593
97.4605999886743
97.3586443323817
97.4226359331163
97.4959703945132
97.4013926817903
97.3884527849923
97.4662950968764
97.4374099119152
97.4033352513992
97.3909422506578
97.4085328235904
97.4660113914263
97.4634869642886
97.5310754085829
97.4816019440833
97.4299624842842
97.5084842352596
97.4846450016097
97.3908676980012
97.3171094093633
97.4318778580885
97.5798109657855
97.5613771418481
97.5332012177274
97.4554899428006
97.5117313194746
97.684790485248
97.6691715806372
97.7032498022412
97.6790396892584
97.4329170122192
97.3132869750872
97.5332532705467
97.7167204200516
97.6846519439943
97.7076818815053
97.7287619817388
97.7459077180913
97.6964793041925
97.5942061489632
97.6713466098113
97.8507236439355
97.9146561897572
97.8494905362895
97.8122450256802
97.811757401079
97.8406941323954
97.9288797077264
98.0412468710263
98.0833637022506
98.0869661099929
98.1257737733894
98.1539215332856
98.185812199291
98.266451660701
98.2484506140737
98.2080346200181
98.2135805479857
98.1959456089388
98.2159760872574
98.3137698391097
98.3491163101621
98.3761503252741
98.4978804546885
98.5499159184734
98.6448895614767
98.779341348864
98.7965096983232
98.8650160502952
98.9264505908573
98.8697760540751
98.858570761562
98.9837791194752
99.0385468298027
99.1185162533214
99.3293653003501
99.5273050840989
99.7398372802038
99.8414818092225
99.7421804620528
99.6114308628725
99.5665649711476
99.4506349944155
99.2385288907513
99.0154703630972
98.8777352623374
98.7334117207918
98.6303606396038
98.6486355935642
98.6368563641022
98.5207545825839
98.5036510414633
98.6158929111496
98.7148056845905
98.7757074726945
98.7955520671339
98.8631048322237
99.0203488854863
99.0936435569721
98.9658059637384
98.7401060348391
98.5218201977549
98.3689866054574
98.3377651828465
98.2926301699485
98.22046551992
98.2356106161981
98.2134953416383
98.1733028539165
98.2333108764755
98.2752363715225
98.1811204955802
98.1098144890317
98.1468643812091
98.1371758474552
98.0863385991179
98.095597896058
98.1544860488353
98.2393735181838
98.2311246552483
98.1182268996951
98.1182627099588
98.1507756288917
98.1237871301002
98.1408025473184
98.1675284685797
98.1602694040818
98.1782323018528
98.204202415798
98.1990962531735
98.1887642258234
98.1938482921983
98.197738006309
98.1909719386318
98.1467700070704
98.1526030575965
98.2296719971934
98.2163532587328
98.1542260324348
98.1253843321064
98.1604867447335
98.2338225843268
98.2217597127795
98.2055115455746
98.2170668652505
98.2025676268331
98.1447334079967
98.0997475540063
98.1271296301549
98.1895365364361
98.2386087093449
98.1992539666093
98.129352615527
98.1558545476873
98.2307640856374
98.2354362615689
98.207330324413
98.2391377560258
98.2500228484126
98.1645819552127
98.1530980598705
98.2468414679055
98.3004557197215
98.2882297655597
98.2379099765778
98.2060852214024
98.2797891061319
98.4007424733599
98.3354972275676
98.2258610921324
98.2897384695518
98.353502600717
98.3285869072305
98.2403538458144
98.2403956900624
98.3760290739612
98.4002126996303
98.3643172990086
98.3041011999689
98.1968972634141
98.2686748634788
98.4480673424499
98.3809006927759
98.1977397012702
98.1816414886344
98.2098683678262
98.2917465707078
98.3879818280441
98.3352610854327
98.3036169954472
98.3117008008115
98.3152014154209
98.4161431992966
98.3350111289733
98.1612768973385
98.2514935401756
98.3278128574019
98.3432536093761
98.3553807044732
98.2475035906377
98.2018398632454
98.3237254737741
98.3036971252568
98.1943453200237
98.2601761052476
98.2703077994176
98.2597777042501
98.3706742879857
98.4301709085509
98.3489524045881
98.3117878041873
98.2974938155232
98.2937396156891
98.3776653512467
98.416643214256
98.3422605467611
98.3272683558411
98.3709561623757
98.3598433462673
98.3525967463824
98.3506670554308
98.326746606746
98.3338234424633
98.3563501585282
98.3229233679445
98.2793368888988
98.3554133045395
98.3585602042404
98.3852442486273
98.4290903135524
98.3754555714148
98.3855999748535
98.3744532740607
98.3762197923532
98.3876171120161
98.4028067490189
98.4320467269827
98.3334985107483
98.3179258588791
98.4108109351358
98.4229709669051
98.4445651212374
98.42043708798
98.3812559637448
98.3800787936928
98.3437581964486
98.3947251577643
98.4823145248834
98.4827628706269
98.4867400234424
98.4650045995138
98.4939222697484
98.5865454303353
98.5444420098323
98.5433147286665
98.6550167755662
98.7661713544637
98.7449999133022
98.511430690068
98.4368487415801
98.6178305805874
98.6844352416006
98.6397144372286
98.602466851024
98.6345586596776
98.7866810903567
98.8080713792752
98.6781595647055
98.6035667683994
98.7849580831123
99.031805055238
98.9217996325207
98.5661906829522
98.799570151816
98.8494816645262
98.5792471649912
99.0116109363753
99.3143050151241
99.2679604511031
99.2454908858833
99.2036048458432
98.9805403127655
99.0853999922869
99.6281638750581
99.7500090477308
99.2036561649899
98.8173090978274
98.8850515971697
99.1429532863351
99.0698287590479
98.833937796145
98.7623736211306
98.8118012294491
98.7403707370053
98.6364861340914
98.6029350943161
98.7732667759262
98.9702294263751
98.969441658466
98.7010418076503
98.7111073813047
98.8355421702221
98.7343621535684
98.758323834433
98.8313651872197
98.7464571336323
98.7820162023516
98.8747307660581
98.9090172249116
98.9259610792631
98.8633054350572
98.9105360848579
99.1416550468057
99.3096609593082
99.3819370290479
99.171532452609
98.9755634172421
99.030154677834
99.4389275888351
99.5918539717646
99.2392085300177
99.1984824401442
99.4649526724805
99.5196905560849
99.0692106508895
98.8551450591775
98.9837139993376
99.0492342222677
98.8288032749246
98.7095088360358
98.9899492297203
99.0815297624009
98.7746479065668
98.4674588263628
98.5260146174157
98.5811201590467
98.8165979624261
98.8844125845565
98.8152391841615
98.6629319123711
98.6822399181987
98.6989513777907
98.634772797683
98.4930057529905
98.6021910038977
98.5768420585343
98.43524888537
98.5022711993237
98.4377515712689
98.4045870730671
98.4770562295226
98.3985401596223
98.338644614396
98.3425183778888
98.325452208631
98.2734181595552
98.2892116457623
98.3987813522597
98.3588096376436
98.2491523949889
98.1896992654555
98.2401087363582
98.2569448175885
98.2468380291066
98.2408686815485
98.2118730493044
98.3157829133394
98.4012964004758
98.2775780434885
98.3035493209268
98.371153514954
98.3540838674752
98.3325228698919
98.3104427583995
98.3266601615347
98.391447136457
98.4211155526967
98.4066913081995
98.4403765251533
98.48833436809
98.5271622874236
98.5950964480311
98.6281592967831
98.6215030889482
98.68797428452
98.7651833603416
98.8300200962735
98.9666831166916
99.154790250961
99.3355326710193
99.5854848137848
99.8251468452872
100.076986904975
100.403670686128
100.692236885766
100.924995640623
101.079022064523
101.059924349077
100.754504158471
100.552761741012
100.598588749525
100.690200515051
100.758375641136
100.539521761979
100.142579159431
99.7568443680187
99.4195545467869
99.1223304530205
98.8629147093171
98.7752438394099
98.744476136844
98.7658043810786
98.9502407592054
99.1632107652035
99.1806400373376
98.8555287887488
98.5042191423129
98.2855106646999
98.2334073197778
98.2115676023374
98.0003314370422
97.866039368893
97.8202291527878
97.834050637762
97.9174796438184
97.8488631068509
97.6634576678632
97.5628724122267
97.5845747789229
97.6326783523344
97.6317842856965
97.6460099456302
97.6851926337519
97.6920137489729
97.725125049069
97.7944725077096
97.8414196085123
97.8366370786762
97.8625268216682
97.8927482932439
97.9587224635803
98.0742734303118
98.0759555085524
97.986432083526
98.0500910819258
98.100895973166
98.0892756716961
98.0993138536469
98.1178833060761
98.1976423552404
98.1500917964109
98.0909573341316
98.1405170731458
98.1625050152462
98.187773019954
98.2095060614273
98.1964773382292
98.1531289584503
98.1310294916561
98.1418175445134
98.1556141545311
98.2302960394438
98.2345109619005
98.2103428039561
98.2245936309873
98.2477662505206
98.3079318676942
98.3847289382962
98.4268868299186
98.4546721456779
98.4921471873243
98.5936525605881
98.6713329361723
98.5608288809603
98.5456681092611
98.591566532251
98.6055013528397
98.6192011883779
98.5413737648971
98.4049443362724
98.3565402793001
98.3783484595814
98.3721111926406
98.292365842855
98.2767456109598
98.3312176587166
98.3222031014635
98.3288553953645
98.3785149143498
98.4301470971561
98.5731273975986
98.8441079685086
99.1904248853271
99.4993913884535
99.6278060516595
99.556146617703
99.5814320096712
99.6369956861594
99.4904168970037
99.287307832575
99.1717215810575
99.0859517406719
98.8639244261478
98.6126813049508
98.4479778913961
98.3297741031677
98.2762960436034
98.2418010331952
98.1981772138643
98.1329608454807
98.1087021805695
98.0997875407226
98.1060825669623
98.1574330750871
98.1890613534705
98.1865919180995
98.212125394945
98.2200536998548
98.16897373241
98.169491030704
98.1609954157955
98.1344016562545
98.1242796623539
98.1156943873663
98.1309608881452
98.1072102852579
98.0578416680565
98.0640667854076
98.071041736401
98.0586518417672
98.1635831100394
98.4292720870875
98.7632596730164
98.9413847648398
98.8316788284146
98.6846782690055
98.7507790295791
98.5781991007217
98.0049652143802
97.5608315733884
97.2600380998409
96.9009424030214
96.43018477386
95.9234985488971
95.4250922752137
94.9227520108711
94.4054078480759
93.8199329748841
93.1310590818166
92.3915458247664
91.6931625949201
91.3594292149083
91.4949515284802
91.4851566891225
91.0276401739383
90.4327841624705
89.8961870616138
89.415221620728
88.8726181654223
88.2634338297168
87.5742679751544
86.6232977353397
85.3416328300214
83.8970645692874
82.7895494466399
82.3972187224265
82.3035128112536
81.926717506824
81.355175351484
80.8268791472934
80.3208461200306
79.8794670670207
79.4950033091777
79.058383987543
78.5327293555416
77.9021932762274
77.0375415466692
75.8064225086173
74.291000595944
72.6325931612028
70.9733497009491
69.3568784816255
67.7722142570848
66.2128383187854
64.6147496868536
63.0432980606626
61.8715273354985
61.6617903600949
62.5148926102088
63.6314815831646
64.0393817656315
63.4190591391832
62.1836300707912
61.3136704581868
61.4714685820825
62.4652462789556
63.8555656283229
65.299596206892
66.6983379365569
68.0449312600463
69.2910475149921
70.5000537678298
71.6909760885749
72.7620373278313
73.6598559163945
74.4165386924965
75.0719937207048
75.562347368967
75.8144810014588
75.7491492613814
75.3928567575379
75.0160118589693
74.8591488172131
74.8890981095732
74.8585083226302
74.4580629866268
73.5696031328579
72.3109486120316
71.1469641824515
71.010046989117
72.148299482887
73.7861541397505
75.2947823419016
76.5382986283875
77.5990299802887
78.5360841774124
79.2665256366306
79.8361805742898
80.498645930073
81.2734723509081
82.1205582985697
83.0905153350413
83.9799173118877
84.6991190436865
85.4270070191122
86.2435222873357
87.0365175343874
87.6464556072867
88.1747132984696
88.6686587524781
89.0944984864402
89.5051231716599
89.8121504063766
89.9202501849131
89.8744575492299
89.5664339937073
88.4504068117752
86.3559599034221
83.9268558271003
82.1619524768833
81.6301614362388
81.6688557109942
81.5004172188174
80.893647559959
80.1098541331866
79.7127005453664
79.8818237033594
80.3378973482221
80.6343442695334
80.8453283447368
81.0658747511189
81.2486872833961
81.5209691008708
81.9113264031411
82.4829022935081
83.238390968096
83.9039407627627
84.4083473043911
85.0443160619584
85.5977581723513
85.7532199454663
85.819085495438
85.8226632642288
85.3403753902953
84.6300886089655
83.6375416981633
81.5030155168841
79.6810192874772
79.6033413522795
80.0316386720041
80.0528136591266
80.4465858978411
81.174467915762
81.3061741215043
81.6822840286063
82.7422360840724
83.0828179461183
82.9907578452723
83.5586872515987
82.733207524381
