900
4001.38730172967
648.873616496703
1
128
8
98.6983647137798
98.6988256045073
98.7601729415777
98.8591651078226
98.9086453472876
98.8523297371094
98.7327401552333
98.7313069064812
98.7223633932949
98.6313936321137
98.6609099222485
98.735937970117
98.8319597766044
98.842349440477
98.7741072497134
98.7411645906346
98.716091295362
98.6895953146901
98.7483834657536
98.7478494331633
98.7701105352761
98.7199443921661
98.6624609046816
98.705716568992
98.6426621698838
98.553371641575
98.6319507055162
98.8301622084559
98.9018908907992
98.8387974350046
98.7595152872711
98.744992557332
98.8514004905148
98.881609805898
98.785765650368
98.8007584155714
98.8393399000832
98.850851475733
98.6986194988342
98.6715930335824
98.9692511527296
99.0330226492284
98.9073777743054
98.7706297022518
98.753465727596
98.9176737384803
98.9639807919473
98.8409393895147
98.8068178282733
98.8603878386006
98.8821425231006
98.8405134056692
98.7397369739919
98.6483968466992
98.8084876376292
98.9139764163663
98.8969815654324
98.8212674625077
98.7666566327183
98.8863087992977
98.9635021168416
98.891929262179
98.8418607117387
98.7990950999499
98.8456729057611
98.9721592116782
98.9111571577762
98.7969583772665
98.9144404804241
98.9270803934129
98.7894767237092
98.8981765585109
98.9939151826949
98.9059286003723
98.9579037564016
98.9150817062381
98.7080476703525
98.1971739839219
97.6938651685799
97.2685491847555
96.3864627369775
95.3398570246099
94.7538962772238
94.7752002619681
95.3231133953876
95.6945879294764
95.9681511874274
96.121417772337
96.0417110530638
96.0382786183068
96.0800301646584
96.0835327120438
95.8822987137803
95.547095406415
95.6160799888948
96.0322432263503
96.1075526302641
96.1140483232189
96.1056517041691
95.8859915327039
95.4641325913889
94.8745032148054
94.5964252145135
95.1868780551725
95.7782697049911
96.2833198811933
96.5110904213208
96.5729319768858
96.7681751701469
96.8330751764061
96.8401214810837
96.9852280180732
97.1396629606732
97.1504223806788
97.1060157338072
97.0814222865916
97.1842121129538
97.4212332851207
97.5174244746148
97.5614031349008
97.539858941317
97.4896553094208
97.3936328891154
97.3516760259615
97.4482721579127
97.7050419570968
97.6225604269141
97.523521345122
97.5679060067671
97.7563175941954
97.7867577116757
97.6264850563546
97.5220158697952
97.5564727525637
97.6705339794642
97.602025334952
97.463415582674
97.5420370544418
97.6860714601809
97.5725750589502
97.4820478081735
97.554330351216
97.6732407673276
97.7600697670575
97.5606954863421
97.5968607895829
97.7094730764737
97.6175661339281
97.5538455130563
97.640384403725
97.7125195598776
97.6752229758931
97.5210807003004
97.6307068553727
97.6545257786726
97.4659551886919
97.5776510584308
97.777695549992
97.7710885508011
97.7798935189202
97.6338320617088
97.686660158787
97.6431944214365
97.6264092162959
97.6871093543956
97.6074330780633
97.7081805489636
97.4904246227065
97.2834214992941
97.5269607096029
97.4898626828626
97.366002849029
97.4474166669375
97.4808682969983
97.4674347830783
97.5190400063455
97.5123179017121
97.5697797913886
97.5903788337716
97.5584678264439
97.6879953195277
97.6661858192503
97.515225979034
97.4481401474439
97.3772583117436
97.3975917541557
97.5244487197002
97.4357180435156
97.3338527563396
97.4304792374923
97.5367299124484
97.5793522810977
97.576983348057
97.4579199711217
97.3831280671565
97.5548899598515
97.500523285087
97.4276499295935
97.4869503367235
97.3655556988457
97.3841510465446
97.4604462603618
97.4367170166933
97.4029252333387
97.3607820764096
97.3284793533078
97.4918399505541
97.6750558252213
97.4829864657469
97.3931675524285
97.4794643197915
97.4507608996776
97.4001491639676
97.4232725990222
97.399389885443
97.381283197505
97.4102377254758
97.4440857111717
97.4565704763839
97.5180200951993
97.4015060744065
97.3859293102562
97.5032915300233
97.5199900894815
97.4678275139624
97.518557618965
97.4783063932486
97.3724493845794
97.3446650710611
97.4410701834523
97.5848096778916
97.5798675347375
97.4591447007022
97.4810269426514
97.546899371663
97.5114947403673
97.4165468322727
97.4147588655171
97.4895600573986
97.5296431143272
97.5242400528373
97.5720840098573
97.5508959274811
97.4964620495954
97.5102673844248
97.5733105466753
97.6400665278725
97.5975808678056
97.5585948175643
97.668370249786
97.7138449790802
97.6180791425406
97.6195398484255
97.6702189701166
97.6907203321745
97.7087218735691
97.7043990278472
97.8017801669963
97.8954871394976
97.852658172184
97.7814794430163
97.8228536541049
97.8545263838079
97.8310618557831
97.8322064150912
97.9551758766155
98.0367720910694
97.9006309553427
97.8586844033639
97.9868756922979
97.9571552982064
97.8978607623789
97.9488702343132
98.0039471002848
98.0580130007043
98.0749434477863
98.0995488942145
98.1419847014622
98.1452046080538
98.2231237779559
98.3601836651058
98.4231183340435
98.4234899858969
98.3889838942272
98.5280132226726
98.7074908407504
98.8595361831425
99.0648418558342
99.2021964045026
99.2249333478623
99.1366941662414
98.9566758750977
98.7078458015302
98.5217416396741
98.4755397043575
98.4710078201636
98.4466039014019
98.4621647175877
98.4662091164671
98.3858939018846
98.2873568788404
98.2495890751083
98.2688238857655
98.3208786324095
98.398531343935
98.4708305552321
98.6174986237353
98.7807086139158
98.7495922562077
98.6078840119387
98.4740953213462
98.4037824934631
98.3614425806629
98.326419838548
98.2818044970427
98.2207204128765
98.2118866209734
98.2433050358685
98.2327328182703
98.1811303342145
98.218048153632
98.2613973767761
98.2197025129218
98.2247989307655
98.2637317753448
98.2483743403804
98.2307251339099
98.2667532399373
98.2991493753655
98.296167007567
98.276090983832
98.2523422872477
98.2707953498
98.3179890404075
98.2914043571322
98.2470811289815
98.3156838224822
98.351060424298
98.3269183404075
98.3157757870685
98.3116698898783
98.3225431320437
98.3333340491874
98.3400943424065
98.3554326569752
98.362813526267
98.3627923594654
98.3482028594118
98.3282863664306
98.3211414561918
98.3304539179798
98.3474344318108
98.3713029006379
98.3595958433478
98.3052719099835
98.3256685405412
98.3597103479444
98.3451092988587
98.3416434724565
98.3433510291246
98.3354161049213
98.3408280885697
98.3005920293799
98.2853457094238
98.365727305063
98.3724157191678
98.2943259091525
98.2727509049046
98.2929142751231
98.3353704318661
98.4510111063207
98.4632544704112
98.3354562267545
98.2972672021558
98.3301518203731
98.4104775936667
98.463490461728
98.4128051304895
98.4261394396942
98.5112983640192
98.4899566050678
98.4198501463418
98.4751068419325
98.5158325526915
98.5062743456709
98.5282747897388
98.4953174116257
98.4774942191508
98.5022457453849
98.5800907437377
98.6577650148856
98.5954113327175
98.5566087638887
98.5979082011489
98.5408404732023
98.4955271001011
98.6026544133132
98.7703801534472
98.7022408960318
98.490226952397
98.5974631805312
98.7219940521798
98.5589647796462
98.5546490336603
98.7066289742836
98.7464166138845
98.7201618872192
98.5621866493778
98.4059287558733
98.4740586192599
98.6334119414585
98.7151793834389
98.6707398706485
98.6047596175508
98.5922989503718
98.6552990952164
98.6403608807585
98.5701169796637
98.6286650330972
98.7057098164723
98.7028284136632
98.7334663664073
98.7047261077506
98.5677682598676
98.5651924525487
98.5892646388565
98.6541842997677
98.7406623005214
98.7199298405835
98.5939984897872
98.5806079858839
98.7013205932696
98.6861290666905
98.6451109369216
98.6525612515608
98.6137677239561
98.5111997152047
98.5017100844553
98.6232707626939
98.6077426478179
98.5590886348654
98.7139310288848
98.8346650039511
98.7593613576751
98.6461857128331
98.5992390181519
98.5805748212109
98.5541177758532
98.5636392586614
98.5351082671099
98.4915332337951
98.5423198115521
98.6135987079601
98.6186563944761
98.6296231649305
98.6790628599294
98.6816849354713
98.7050108402682
98.6844874567768
98.6179818405622
98.5833222994423
98.6198836522536
98.7266022854368
98.8803472004519
98.9183733897242
98.9290967075581
99.0246943576708
98.9347620181713
98.9494476940529
99.1747676416449
99.1197004199331
98.9761578570457
99.1386507438064
99.3787835580219
99.3590970964814
99.3371507260073
99.1561584128976
98.8617565938639
99.0631743612636
99.45703067783
99.7737540300392
99.5220523499118
99.0306168677183
99.1686032900462
99.3295844868444
99.4239205380415
99.7778849362695
100.056796608734
99.5490480150985
99.3942664598576
99.6570972425341
99.4348186850798
99.4794913887375
99.6032243390842
99.6680035788213
99.971120405212
100.367701969948
100.064895283655
99.523006039896
99.3320431666628
99.5332835120322
99.6355782823022
99.3527990665871
99.2009237099061
99.3419570854731
99.2908192940292
99.0760976841961
99.0847862156881
99.2232046667057
99.3156804908155
99.3425338495682
99.2313832868743
99.1136705264694
99.2222008442403
99.382096006709
99.4401654672769
99.4004522429725
99.3666645225057
99.2413316359943
99.4321030633119
99.8152639972478
99.7872402470448
99.3570961598973
99.2661479095437
99.5855816428837
99.8470283938711
100.011366698363
99.9592461108855
99.6784079605164
99.7764786249588
99.8997081432872
100.127135582104
100.495608582146
100.491453487985
100.22270167638
99.9103428143472
99.7112189779924
99.7090810380066
99.7083466742953
99.6349478635125
99.7042093815504
99.5700689919029
99.4540251939507
99.893528320608
100.031684170351
99.7630576329929
99.566093457277
99.5309970455931
99.382940157057
99.4353127818043
99.6312177637637
99.3105799539663
99.0265895866641
99.0924071220191
99.1459758464356
99.1965565526378
99.1993310967869
99.1412559337258
99.0606029950963
98.9292565595226
98.9415321705142
99.0045298001695
98.9859007362446
98.8700071137949
98.7495288145621
98.7563295291159
98.8594871540147
98.8250291182283
98.7188992261322
98.8234069580791
98.8913158400021
98.7469179830013
98.720447549108
98.7788536122132
98.7310617341692
98.6888821859658
98.802430311204
98.8003282355602
98.6731027238663
98.7702696013077
98.8999334075011
98.8218843448187
98.6831229876389
98.718531126892
98.7962714139022
98.7863940372977
98.7351377934338
98.7348463945674
98.718312788731
98.6799564644738
98.7661246852096
98.7554615931272
98.7089057007547
98.8037455984542
98.8216082740454
98.7798765445011
98.752937931673
98.7334345834943
98.7686482196715
98.8276260831392
98.8665838092353
98.9486044501218
99.0628407523408
99.1146358334604
99.2993380171722
99.3454059527997
99.1760307886706
99.0328048371502
98.9710946523958
98.9608780022785
98.8742685300016
98.730145867868
98.560063464975
98.6577772551114
98.7235141457043
98.6461214330809
98.5193432574318
98.4777991300657
98.675261798848
98.6506524508315
98.4328786114158
98.289346805478
98.512603269394
98.4717901870985
98.2801911058042
98.1783159941907
98.2237945433147
98.2633646882137
98.1632519252219
97.8661593933466
97.8872567761496
97.9918982154093
97.9435403758306
97.875992388974
97.844642742213
97.9987521684288
97.9434776071483
97.8724632154223
97.9474659889898
97.9833511633437
98.0439145534865
98.0795740201711
98.0838545321386
98.0994530456184
98.1248983014535
98.1835494914758
98.2158213410556
98.2807466195643
98.2906742730128
98.2288907783794
98.2582045757935
98.3352089839307
98.364147734512
98.4074125239838
98.2642910468656
98.2673367287108
98.5128624256359
98.5321479925485
98.4603638978261
98.3264477517264
98.462169279324
98.5940381452173
98.5733308613556
98.528909952412
98.4461787815846
98.4543924679358
98.5508227129738
98.5413950468187
98.3888602855473
98.4896517269461
98.6092032707908
98.473108714482
98.4568249084878
98.4635397846309
98.5655263472434
98.5942861550652
98.4941208805105
98.4720125502362
98.5594112411046
98.6082926713961
98.5773269856107
98.5014569272672
98.4609907543774
98.6259519615426
98.5580687979064
98.5276686437407
98.5073089904767
98.3784229364822
98.457081416014
98.5170146091939
98.4861860151414
98.4911849441321
98.4814443405414
98.5547147874834
98.5852368085452
98.5603791717106
98.5504417485707
98.5194794171377
98.5691824612236
98.6990421473702
98.7447524953964
98.7066985912636
98.7239146915265
98.7937863406193
98.848523247815
98.861766242646
98.8415850191253
98.836321353629
98.8789551628349
98.8592811908311
98.8375956824105
98.8659409535793
98.873630911166
98.8512705541719
98.8931463159837
98.9069617635005
98.8835733559102
98.8736508401333
98.8704994572277
98.8708780099815
98.8541543289098
98.8656539277248
98.8815874581597
98.9115468044688
98.952952855179
98.9493641579263
98.9394546275069
98.9250654226484
98.9136549340776
98.881465131963
98.8491933013382
98.8631706944751
98.8856800817159
98.8868840386425
98.8804542441074
98.8461486293442
98.8214343754956
98.8173418254009
98.7912921935937
98.745032985344
98.6972784723605
98.6678810992577
98.6496838351434
98.6119344456537
98.5457975568416
98.4499328526241
98.3161418982907
98.1783067327255
98.0047963897031
97.7890994657957
97.5711761147416
97.3736088898599
97.1699609175365
96.9290830005759
96.6311520707996
96.2796771574123
95.912290922479
95.4926197888747
94.9286196019775
94.2854976827083
93.7403442470283
93.4995787293317
93.5467807597903
93.4454428026039
93.0139343275916
92.5279053680604
92.0855320484083
91.6138281333812
91.100231255347
90.5079691233495
89.7857402260504
88.8064408283742
87.4617690300267
85.913491907
84.7747962573971
84.5158514064153
84.6438243669063
84.5101015695111
84.0689094953136
83.5814900024177
83.2022266749528
82.9022801536117
82.5784223233654
82.1553026323209
81.6336109228669
80.9747261762365
80.0168668347002
78.7044692678405
77.1946523981757
75.5422972947162
73.7519568508964
71.9505122561691
70.1676920068342
68.3858345334195
66.583709768549
64.8165704380961
63.4091691619782
62.9565642715507
63.7353315536822
64.9626119258639
65.4747859671342
64.8068420501209
63.3937196481572
62.282023765619
62.2639555915634
63.2163649696724
64.5991871347352
66.0917141645774
67.5480429548831
68.9356570342913
70.2951190266295
71.6151186019406
72.8146783662175
73.8757388578587
74.8666408973195
75.737895867024
76.4032832172104
76.8961277456028
77.1295871339949
76.9221307339597
76.3955156817452
75.8536474560271
75.5383043340653
75.4782880378268
75.3541316940965
74.8291377536189
73.8100595228213
72.3293016737806
70.935298154831
70.6677956316506
71.7687551486743
73.4216084296072
74.9433586460991
76.3024486369458
77.5350816597301
78.5430973368101
79.3358044909499
79.9308451374293
80.4923417275209
81.2750155147805
82.2496786656852
83.2241557321083
84.1459834168165
84.9928713196471
85.8350318412142
86.6660740629047
87.3670223509805
88.0338303636698
88.6876231619739
89.2194787700526
89.6540623842799
90.0121235390029
90.3499015568013
90.5935897600716
90.590288412693
90.3351820326579
89.5487061348369
87.9718294376236
85.999804288797
84.5114547530444
83.9575275916007
83.8735332039851
83.6816078518725
83.2663159139061
82.8618972109204
82.7830126982345
83.0257236228497
83.1885263567641
83.1633394795913
83.2895272248932
83.3733281958871
83.1386099723881
83.2587541068904
83.810463372183
84.2686244331318
84.9229709290547
85.5675459621733
85.8682825985183
86.370777502657
86.9916662184325
87.2967437428312
87.3221239941887
87.0330000369215
86.6447044289645
86.0699586878504
84.8793138300099
83.2705813189322
81.929749828527
81.3797071051405
81.303648687877
81.3971931941598
81.4781699238638
82.0629025942045
83.089031599085
83.6326600330388
83.329038525916
83.1999104977086
83.9850330870706
83.8094741064313
82.9072208825085
