900
4001.38730172967
648.873616496703
1
128
8
99.0571694704136
99.1175718497902
99.1325025988984
99.0844909096873
99.0987622668438
99.0812518272868
99.0429421229467
99.0600509242674
99.1003626887993
99.1258396416813
99.0757799704636
99.0105891382362
99.079398532137
99.1099929051071
99.0498441770714
98.995510641958
99.01875101779
99.0058537167845
99.017968746503
99.0399056053458
99.06959065814
99.0954738501
99.0597601668774
99.0003143500171
99.0318902526334
99.0868472752979
99.0879186798559
99.062419365723
99.0714180954096
99.0740840834757
98.9365560030525
98.9644184293447
99.0903593389009
99.1055458891283
99.0291667860029
98.9996474702198
99.1443766319793
99.1387531437387
98.9959667783718
99.0428123577981
99.1154481320223
99.0756914531515
98.9905302726526
98.9413438636843
99.1186545412037
99.1783947059131
99.0011059481467
98.9156213243032
99.0579537717068
99.120353238327
99.0313627872523
98.9555787310871
98.9733863764164
99.0568940412198
99.1332818109909
99.1190527411629
99.0203359683334
98.9357033620002
99.0034662280415
99.1774227250734
99.2145052484851
99.1535878543245
99.0419865544359
98.9983097909649
98.9982179671219
99.0271139612605
99.1609182946955
99.1399098141945
99.1065677720155
99.2135830594365
99.2045300698077
98.9604518309464
98.9823732282604
99.0279425821476
99.0424346033033
99.090188018943
98.9972093557903
98.9871250496508
98.9973388125195
98.7713304326147
98.5492909696302
98.4053207503554
98.1639205955568
98.1845248920701
98.5569111167212
98.6789351421317
98.6420919669506
98.5738100439941
98.5042441235497
98.607979235063
98.6235915183803
98.4747059712501
98.4222328902272
98.4420796028994
98.5865412994223
98.6719543175265
98.4956486258638
98.4798882908592
98.5067098301219
98.4002379809676
98.2669273548457
98.2341031045504
98.3607526538426
98.334547389613
98.2974434984468
98.4058656363828
98.5036491967085
98.5567804584365
98.6306596708722
98.7330447209922
98.6530343376649
98.4479894475235
98.4710305394965
98.5068269535878
98.3364784089579
98.4510211081491
98.7252079079589
98.6112502158057
98.5899724889533
98.465957358488
98.2590475374484
98.3996580213493
98.528774357555
98.456764241014
98.5930078927264
98.7747100354724
98.6488559427395
98.510130527812
98.4922965573969
98.4629499830153
98.6607749224292
98.7895584434119
98.7883693138951
98.6286431500766
98.6291469439272
98.8117858494849
98.635157614013
98.6469649814341
98.7643568695375
98.587559473024
98.7534866284835
98.7901167494254
98.5996795965941
98.7621242397738
98.7810558293353
98.5260122451816
98.5665885469463
98.7470167189427
98.6284403697213
98.7043839532536
98.7882620528172
98.5017008290326
98.5445722312954
98.4766331285994
98.3747406835339
98.5350135503335
98.5312813660002
98.3755149815263
98.2912898386122
98.4696997991507
98.7519263807957
98.5653065415624
98.3564095097041
98.5274912511531
98.5879008671318
98.5072563103306
98.5501325033134
98.6253759236861
98.6511348683838
98.5767793834861
98.3560626050089
98.458203881381
98.7174618016473
98.8187541111829
98.7336135149629
98.5582481337638
98.5207393846901
98.4483851079684
98.5198060080369
98.7404051560033
98.7276118558243
98.703415806873
98.5199189941993
98.4957503848481
98.6393544855732
98.6618503257636
98.6376131261817
98.7620469759177
98.8168295406617
98.6846526722894
98.5963834185964
98.426527295431
98.3874351519332
98.520622508747
98.5344654582202
98.6419463689284
98.6538678662763
98.621099133226
98.6155942938745
98.6564995731682
98.7264813575912
98.667779318714
98.6116856802576
98.5139503281672
98.4656371829067
98.6374763034301
98.7926317240632
98.73482661262
98.5644216442128
98.6639611878306
98.9255270457997
98.894838472184
98.787004272909
98.8171720579306
98.7778745990329
98.6974461163643
98.595275513126
98.6347378278592
98.6593332721794
98.7303049008361
98.864842874807
98.8104345767589
98.6644194415494
98.6592223166559
98.7114170152244
98.7626681261183
98.6648186972612
98.6208190076492
98.8228323711499
98.8160588423521
98.7882354975414
98.7880175527764
98.6920113672622
98.7362724392438
98.8365663116251
98.82574196374
98.8332662301651
98.8320906087445
98.8054012317508
98.8324906626527
98.8941036153563
98.9199123814453
98.9534751546692
98.9896927576482
98.8669978515368
98.8314471276721
98.8806659038876
98.9135437769023
98.8666161847505
98.8497915493488
98.9057361944458
98.9683733745428
99.0653601295943
99.0560283707879
98.9663146917145
98.9682313370054
98.9988383437743
98.950008572131
98.9631176809527
99.0494319184015
99.0659359202579
99.1221235747048
99.1397354524673
99.0967953344502
99.082563250113
99.1362155439456
99.2832534146486
99.3278907139902
99.3086111456949
99.3069810173716
99.260537654302
99.1731065532924
99.1784383959629
99.1885017431558
99.201126282725
99.3386474590403
99.412464864223
99.3836048622859
99.3921154430241
99.4424432812584
99.4687777399715
99.4317377816217
99.4169575432715
99.5890972297197
99.6998311549038
99.5901701523408
99.6242653793852
99.8564041836622
100.041304224221
99.9998791676126
99.812160928755
99.6503935161033
99.642644256724
99.7144894412488
99.5846166419277
99.4234546094906
99.3344417722546
99.2541029663998
99.2363448020024
99.193576783319
99.2195803097605
99.280767090407
99.2039486419211
99.1980705053388
99.3282083977558
99.3653210596727
99.4174427282826
99.6183616385769
99.6536661115628
99.4225877323376
99.2488568827878
99.1696685397459
99.1284091265544
99.1075398265716
99.0691029803657
99.0413853381327
98.9745825860687
99.0404251853146
99.1244994197168
99.0728468334619
99.0358152497859
99.0005544625213
98.9660826571982
98.9817851282168
99.0052449750949
99.0129510975285
99.0041269115494
98.9622636958744
98.9232863751379
98.9544958954155
98.9875967176839
98.9920817311168
99.0167324134985
98.9638482273246
98.9288625892903
98.9940904099344
98.982002229962
98.8988674894176
98.9196812539615
99.0059910113489
99.0059588926109
98.9465740490721
98.9319260908223
98.9471192416165
98.950278489628
98.9469535441171
98.9718186055711
98.9851761419663
98.9318083506856
98.9169032166698
98.9607593880392
98.9844914216344
98.9877594669238
98.9768446368099
98.9843683846648
99.0265989630716
99.022596964514
98.959420684545
98.9298915370419
98.9404539681465
98.9143382880768
98.9030270843642
98.9364187860688
98.9199840195002
98.8901921532687
98.9369665114408
98.9543807260278
98.936558392615
98.958022664545
99.0117732978984
98.9985765858994
98.9405254021807
98.9446179568187
98.9460736948873
98.9364406058196
98.907944621938
98.8757177171906
98.947542619517
99.0002923098535
98.8969739438158
98.8753025037653
98.9404789265084
98.9692271783457
98.9566339997695
98.9245895433574
98.9125483882546
98.9108250960313
99.0219347977386
99.1439567026272
99.1136660365104
98.989726804505
98.860017902711
98.8592070562696
98.9072096247131
98.9344347221149
98.9442446271465
98.9248562215912
98.9779362304103
98.9496759618301
98.8952708964144
98.8770413131438
98.8293456604412
98.8757407889936
98.8871772681766
98.9434202209887
98.994091318765
98.8768809998921
98.9062951664337
99.0216867345372
98.9911147148532
98.9151469806904
98.8970260927604
98.9544786915139
98.9461169978027
98.9217125487647
98.9972477309226
99.0122218017299
99.0119312332027
99.0351486515396
98.9497787114856
98.8970807874934
98.9036408337558
98.933312522625
99.0344873515872
99.0487291713918
98.9680828968601
98.9607015559205
99.0086920688945
99.0315409497219
99.0591259879613
98.9465642877539
98.922207374937
99.0409552705245
99.0364727615597
98.9433867552712
98.8378261701823
98.7725042641478
98.7501565363886
98.702912041333
98.7041212740567
98.7237297812013
98.7668892394596
98.8300003878447
98.7631784290728
98.6849978098697
98.6993637253407
98.6957076200036
98.7503892956488
98.8324124397863
98.7672509314554
98.7813309660552
98.9416762372079
98.9992440628184
99.0050754333343
98.9194979561398
98.8025018190674
98.9125078825411
99.0292023607888
99.0353960568333
99.0311382391657
99.0181054365914
99.0583345700253
99.1318111066757
99.1387763404835
99.1174961513937
99.1109201207666
99.1694712784758
99.2463551766824
99.2448945165196
99.2941188631833
99.3132157082408
99.1897445910229
99.0637426598439
99.0874200562594
99.328765223067
99.5024827431675
99.3654961678692
99.3434606817608
99.4183615755168
99.3219630046181
99.2455260799342
99.3273830509957
99.3921803561698
99.520938912529
99.611762330746
99.4913013107657
99.3653840258914
99.3357011364267
99.4863146712845
99.2881372750996
99.1580506919837
99.5170995364979
99.7719007585247
99.9338335090755
99.8450259689539
99.5287920145408
99.4800615543319
99.5814329262008
99.6290626658328
99.6674410045356
99.4537412862192
99.3722228590576
99.3527914372318
99.1620497023018
99.2081913503143
99.3002988299459
99.3516349320258
99.3578979918168
99.3362602774337
99.303042470031
99.1724537724644
99.1296693837143
99.2419889768001
99.3400730824964
99.4071192622145
99.332632511747
99.1911032486316
99.3797826831029
99.5093399799274
99.2355219753769
99.306897191939
99.5781352956468
99.6396857430535
99.7387412602071
99.7879221950649
99.7767721435459
99.7713213622831
99.4711556484389
99.479276020064
99.7946556586703
99.9976184668222
99.817189745159
99.4410292941925
99.4135386803007
99.4294205742363
99.4650790881787
99.6829314919724
99.7027226011702
99.9093617299426
99.9476324433966
99.8302102060673
99.5371488180848
99.5133322094807
99.5204116266391
99.3201057611996
99.3810990929249
99.2417809774103
99.4178741439256
99.4706393696938
99.3646391911898
99.3562257361942
99.2976722395514
99.362192491534
99.3076471186991
99.2103894465263
99.2792174783502
99.2547390635234
99.1367541884685
99.0463745310675
99.0371174832614
99.1340401666967
99.1110358821785
99.0597341840416
99.1100555960447
99.1487604881871
99.1835749349639
99.1002696120482
98.9668453214254
98.9160430812475
98.9772408277865
99.0676118072201
99.0519176701192
98.9303082766756
98.9197716955305
99.023400299248
99.1208351359936
99.1134177511807
99.1062729634968
99.1168670462111
99.1167103843353
99.0825299636553
99.0742681569103
99.0853311078915
99.0913631413879
99.0773589970878
99.1215366457674
99.1717101647491
99.1274105496
99.096094375647
99.1000125342491
99.0813929393433
99.1057792872235
99.1580821438826
99.217864427228
99.3027802689158
99.3832274554328
99.4040924760577
99.4725649873827
99.6349443009075
99.8042511751598
99.9698437533414
100.198245846975
100.491176612449
100.779793605057
101.042200203494
101.194151946733
101.250109796916
101.295210051418
101.077512903418
100.846172909142
100.848007735811
100.987473434686
101.187883711854
101.229148007191
100.929665670293
100.52866000902
100.182140126899
99.8080527196354
99.5477510239845
99.4151429185279
99.2252408432049
99.0774472289989
99.0826107078203
99.0406334824414
99.0333423272006
99.024759220832
98.8969387962495
98.8173060982527
98.815607801434
98.7838364218132
98.785848305069
98.7694205557426
98.7755715568771
98.7146228295783
98.6322174954574
98.7071194031425
98.713222079303
98.656301514871
98.6320844534137
98.6676178228
98.6956866742501
98.6973270789136
98.7616556278635
98.7845099428334
98.7934121506949
98.8506418565994
98.8811735112008
98.8915948166609
98.8773686491072
98.8477027422933
98.8267508300415
98.8308111259717
98.8341475314439
98.8296990093851
98.7405223315559
98.6605016752949
98.7392307505374
98.7053071511109
98.5597609548703
98.3841262349223
98.2531779404091
98.0556540834283
97.8317164378605
97.6360344260663
97.3494907410352
97.0189567315081
96.8043052153916
96.5643664510513
96.2671588883951
95.9479195191547
95.7165767804493
95.484047235067
95.2303196128902
94.9642657152214
94.735897088836
94.59180433917
94.4098763347673
94.2123477523807
94.0895025613518
93.9812369999855
93.8313216117924
93.7100497628268
93.5951441867965
93.5474811582412
93.4371617060029
93.4032141707229
93.4522757511372
93.4831641239728
93.515574812672
93.51418156797
93.541454578242
93.6251667895956
93.7386148732809
94.0171072328763
94.2621354930755
94.5089233989311
94.8772410171241
95.2501564039344
95.5721884669854
95.9506086747803
96.3396903074263
96.7900769795928
97.2766991146512
97.6380120967254
97.9486680971042
98.2307454823112
98.4442527632127
98.5829060086476
98.5881719190229
98.5417063029037
98.5408849725065
98.4962944047258
98.3955324108709
98.2988022896682
98.212127921044
98.1697629055998
98.1689734701317
98.2039725448416
98.2362674730512
98.2692524897268
98.3132890477431
98.3731880856543
98.4077448570736
98.4266943767995
98.4705259886517
98.5097765106706
98.4823580787339
98.4646588140674
98.467803562627
98.4726795075856
98.4949148220157
98.4978872229682
98.4786408084291
98.4774931739202
98.4638296472004
98.4743742057717
98.4742627104234
98.4375727169184
98.39422904015
98.3611824427674
98.4597143754156
98.682708511244
98.9151111058253
99.052115843281
98.9817912075043
98.8618150688139
98.8579903657515
98.5632110981296
97.9518249528917
97.5269910821561
97.2149922315607
96.7859145095231
96.2552459071626
95.6991957877107
95.1697887929915
94.6688145241853
94.1322491048661
93.5038370565061
92.7876701464414
92.0115425506463
91.2167208230906
90.6467575038134
90.5147060596696
90.4398255501465
90.0250931771178
89.4192293432373
88.8161009174068
88.2609012831866
87.7797779015551
87.3369175539157
86.901751992827
86.508168641798
86.0880236199968
85.6270451559164
85.2726861725869
85.0652312809289
84.8177953014126
84.4277762307011
84.0596833462422
83.7706196350267
83.5030279332571
83.236479521645
82.9974094775556
82.7921077128935
82.5756586232281
82.3036481803017
81.8762883271578
81.1599484506947
80.2248137753854
79.2149069642198
78.1898924499089
77.2825320381797
76.5387410813322
75.8497495189098
75.1724990557983
74.6134433321899
74.3238813947619
74.3591438791912
74.6224339261914
74.8683379714123
74.8614356306025
74.5642078432875
74.2563519281187
74.2843397049645
74.7091035775399
75.3975252894008
76.1800489191301
76.9385049820411
77.6430869744322
78.3396693407036
79.0199959713575
79.6316841716313
80.1952279992449
80.7412292621734
81.2384120891691
81.6758184086266
82.1136440827069
82.4909358639743
82.7665049006
82.9820492161159
83.1540514966911
83.3253831294828
83.5410988817798
83.7927169780173
83.975258963148
84.0451176449055
84.0277084392008
83.9574802890451
83.9975123957447
84.3391952960615
84.9470865500309
85.6076032211499
86.2518627108465
86.8393284153561
87.3157643314555
87.6521063718127
87.4501505822531
86.271356762024
85.1421223667603
85.7504397364631
87.456993283449
88.6380993613045
89.2476700917505
89.7379850761595
90.2661421785395
90.869987724841
91.4581938064533
92.0084651057331
92.5001907337713
92.8776255517915
93.2181463462975
93.555248405809
93.762159270929
93.893434839353
93.9426870693743
93.638371545762
92.7997962826463
91.2370194984541
89.3616157111391
88.0082396158797
87.4431032535296
87.3444807681432
87.1431523855606
86.3089750223235
85.1585721831011
84.5500330261112
84.4998435216657
84.7477932504422
85.1285894454887
85.4227869696474
85.7870154975371
86.1908802286494
86.603800671077
87.0976030462254
87.5612471152677
87.8256967921044
87.7325429925825
87.5822779225116
87.5712099870568
87.5987264226892
88.0145879228736
88.4311825340058
88.4584179655934
88.8555553537139
89.5238368436719
89.2144101068348
87.6826704588566
86.6777052555896
87.0664614376256
87.8066794473444
88.0427493021095
87.9668725232207
88.1311448603278
88.694575042732
89.4511634539925
89.8272819169135
90.0934016351687
90.1959519596392
89.5164330063396
89.153668077352
