900
4001.38730172967
648.873616496703
1
128
8
99.1870830493643
99.2776651810277
99.4092194053248
99.3708236817538
99.3344192881335
99.3594439060541
99.2444904936569
99.229064169533
99.3489099426392
99.3448485347832
99.3514255946238
99.2578157995302
99.1976400870659
99.2836592830252
99.3840701113969
99.4581603006351
99.43143099598
99.3473444194149
99.2610027941159
99.2180367880388
99.323583505624
99.3968358617239
99.3569517552091
99.333428434247
99.2653003636211
99.1586371606833
99.3105498868679
99.3965802503545
99.3116069062887
99.2916909887941
99.3063344872141
99.2951221361053
99.3405041394101
99.4221162272454
99.3310326193019
99.2824261186014
99.3154545657063
99.2352686874655
99.1860726909307
99.4136912008849
99.4035480901199
99.3375121360696
99.4125269741147
99.4013608350468
99.3483926889241
99.3399238834152
99.3378816650087
99.3669359899069
99.3720083392142
99.3313180585678
99.277836396772
99.2191323622204
99.3037665250289
99.3113024884036
99.2546852727687
99.2223631245427
99.2433310155891
99.3967308975325
99.3723397886385
99.2990496284308
99.3799430559646
99.4061419354229
99.3282528303873
99.3063639789902
99.3439118254294
99.3718373287796
99.3614299779426
99.3401228453552
99.2350051908968
99.2931987181503
99.3326807932509
99.3234731935176
99.3152109739706
99.2917835179054
99.2332620592706
99.2103494716182
99.2030765574697
99.1813827490069
99.096872280785
98.9580328837758
98.8063654699589
98.7507152416637
98.8031256537818
98.9404836673211
98.9747259141474
98.8471839225536
98.7886957926264
98.9581914008316
99.1013719800399
99.0253785800177
98.9045862578248
98.9106605038404
98.8593936629001
98.8424938170235
98.9678725148849
98.9699969261509
98.8888993530509
98.8709122433746
98.8601585076759
98.8678379805207
98.7086261754871
98.5715392528992
98.586371703545
98.6639947259239
98.7688644489386
98.8151149764954
98.9363842093368
99.0026628681353
98.7192666278674
98.5136240325346
98.6475382905453
98.780384436509
98.7005721989098
98.7731630297714
98.9263626391583
98.8806392205296
98.7830009691129
98.7611250525709
98.7267067859634
98.7554915243797
98.6191502941285
98.5984021385347
98.7559881146117
98.7552037970115
98.7147359273826
98.7516063457034
98.9280062899027
98.9026625311138
98.639266455962
98.5077205677032
98.7510485754562
98.6691106401183
98.3993080082485
98.7164291282949
98.8665999586933
98.6526239235344
98.6824251338081
98.7567499462688
98.6358854182038
98.6127736071471
98.5066061362449
98.5663874684975
98.7771250494452
98.6579260581961
98.4855577199162
98.5417393388842
98.5725813227602
98.5830370125596
98.6180555433939
98.646092984199
98.5346755116461
98.5347895480921
98.461569077214
98.2348135590155
98.3330562012921
98.4866091671659
98.5355393673867
98.3864993127403
98.2393469986324
98.2683903391058
98.3064443461594
98.2783912882737
98.3844238563325
98.4648940592572
98.3850060742152
98.2368379860009
98.3165310590002
98.4650724796152
98.5573426550556
98.4268423555033
98.4334097977329
98.6781506669858
98.5555054146026
98.4294308292167
98.36283234744
98.3963947297658
98.4395449501294
98.3216305277698
98.3209669647243
98.3695494704235
98.3491689458796
98.3020181506637
98.2394906621377
98.393798180569
98.5454021127071
98.5277073733433
98.476212080695
98.5061205176993
98.6590509274208
98.7030727021639
98.4803801670361
98.3471519139443
98.5089898703098
98.5550851900292
98.340548658424
98.3907215943601
98.6256386188747
98.6154195014456
98.5447413475071
98.5567203298635
98.5489842681868
98.4628662444503
98.3934278587179
98.3796909800054
98.5075123149946
98.5232325438483
98.4226476837608
98.5084615819192
98.5134954260499
98.3374820500057
98.399902211697
98.5257307731164
98.6045274494608
98.5559056469876
98.5154944349107
98.4930421158302
98.4640217674152
98.5528207801697
98.6403239624312
98.5546267210817
98.5589288576163
98.6562688084661
98.548356724689
98.5290429256602
98.5765869881184
98.5806131919679
98.4889474781754
98.4568123506248
98.5403171999068
98.4640226312968
98.4696043105709
98.5456767195809
98.5408539410134
98.6367209231444
98.6919489002049
98.6648802572537
98.6312404306269
98.6386182912629
98.7138098066098
98.6033046121928
98.6139038546485
98.7140180353438
98.5961637684645
98.5007422275309
98.6016140217703
98.7452010780121
98.7936562119081
98.7154442738283
98.6948684615771
98.6815404994584
98.672677975451
98.7412508462134
98.8092493402665
98.8112660283571
98.6721025717232
98.6326194710439
98.742560030455
98.8406645648824
98.8201718675271
98.6928621380292
98.7166476487797
98.8589489942409
98.8210642859821
98.7266611909381
98.7250285309682
98.7294831562829
98.8288967854721
98.8641460437432
98.7924464273869
98.7890547749126
98.7977386393295
98.8021421886608
98.8161793539782
98.7616143783655
98.7399256658681
98.7543842184308
98.7998722823109
98.8174510616982
98.7849475377812
98.7913346395961
98.7934970204152
98.8699646392057
98.9172990154185
98.7000467039033
98.6621852979247
98.8150158850714
98.8140999224824
98.8510259227407
98.9206355986028
98.7871748192735
98.7410686409045
98.8573907308464
98.922192451888
98.9421375152719
98.9141816201274
98.8390451477585
98.801728667869
98.8462464333309
98.8946472316606
98.9071508520504
98.9278129652159
98.8974375676733
98.8582859972316
98.941228805541
98.9841479444544
98.8895163975045
98.7676023354799
98.7608042287129
98.8865566531003
98.9536074170215
98.9288815025234
98.8997964939162
98.8837239661928
98.8973177494883
98.9023616640314
98.8928194551942
98.9817437758731
99.0687933697484
99.0342385885724
99.0088702662093
98.978977169828
98.9290936076192
98.9587533738776
99.0093360662512
98.989703661075
98.9556554469736
99.0136128681743
99.0726081840649
99.0626879926223
99.0205451925572
98.9676995819869
98.9459921219278
99.0284850351863
99.1265200417715
99.0864656915055
99.0415560256175
99.070548725554
99.1177002371807
99.0827784036019
98.9935240796481
99.0143607201769
99.0626045778447
99.0515635575933
99.0442058299564
99.0273608219268
99.0440643235238
99.0882338601011
99.0649747406803
99.0510232576953
99.0702518460565
99.050837545868
99.0359741879075
99.0635487367278
99.0769223192993
99.0558671994112
99.0509738568199
99.0272281726782
99.0089777515368
99.0584841355854
99.0721182797449
99.0331646655367
99.009665006597
98.9910755084728
98.9885420820484
99.006560096993
99.0305932169755
99.0453794295687
99.0636937699149
99.0314686242975
98.98740083332
99.0434246624799
99.0626355142305
98.9950289031459
99.0082393033235
99.073457032782
99.1019916026649
99.047061511383
98.99233575199
99.0089097225607
99.0597917694785
99.1514448397632
99.1514758795756
99.0734961715037
99.0349800622861
99.0134770760359
99.0480752489142
99.1179226822236
99.1274118981938
99.1025753090783
99.0376191263093
99.0062449589856
99.0933318957277
99.1106356624393
99.1386945304584
99.1291342991524
99.0301752319539
98.995174157303
98.9451387442605
98.9140800250127
98.9897585580889
99.1462396468423
99.1719980696773
99.0226154112726
99.0356413305231
99.0643368296533
98.9785342933318
98.9453215162427
99.0408972220744
99.1441477528027
99.1232576587421
99.1273129601953
99.147310969093
99.1303590130445
99.0815995047607
99.0263911195173
99.0819881894425
99.1665372032841
99.1572487589218
99.0988013869389
99.1073259756198
99.1258909611027
99.1614468534074
99.1644199854246
99.1634927094789
99.242340514637
99.2537169552254
99.2351216316332
99.183048524598
99.217781094656
99.245278644287
99.1893624088642
99.1889693139319
99.1890561982574
99.2137569899019
99.204976211518
99.200422887581
99.2335206225809
99.2647440694482
99.2194503613688
99.1691479106918
99.2115505433997
99.1966383755255
99.2016240744754
99.2688694055458
99.286061097982
99.2610917282489
99.2306348679236
99.1705803808409
99.1352087409128
99.1760690027187
99.1855806565706
99.1839607210905
99.178447907467
99.1720881368579
99.1902116886149
99.1807006319886
99.1757018472549
99.200350353725
99.191569761157
99.227013367455
99.1681260174565
99.0928452705789
99.148503240341
99.2775005372077
99.4166756667524
99.4174564654577
99.2848856460237
99.3009290245412
99.4287010385305
99.4150938027474
99.4403738592068
99.3688774116751
99.1943749078699
99.3310529826327
99.4772740379326
99.438671287789
99.3199466417913
99.3791818601123
99.3730518200213
99.2127411668745
99.2310817926632
99.5089821537321
99.5921152563969
99.412738315056
99.4966603612557
99.7310834694951
99.4566200504039
99.3242219978432
99.5335819410664
99.3272694865644
99.3816222663134
99.7700611733795
99.6277363233179
99.3115417724166
99.4647458898868
99.7978501490664
99.6952593987283
99.3389856345877
99.2538497648063
99.5124123858875
99.5636253657105
99.5417097171902
99.4928503296823
99.4179026442375
99.3268900664867
99.3119960069965
99.404117334308
99.5252659649951
99.4168886398988
99.4152208760325
99.4866262855472
99.4515802899446
99.4171850235856
99.3005696474359
99.3450401186195
99.4606622714966
99.4846289729089
99.6029178662039
99.5734050465852
99.4380506115339
99.3531432797895
99.550012807117
99.6259561559055
99.5348902724769
99.4338081394581
99.4231959002698
99.7378635521323
99.7182039747
99.4530616850413
99.7031378420938
99.7090540907846
99.4146536321864
99.4292845505317
99.4811666278282
99.4093616041488
99.5925825328348
99.7181727900586
99.5049684630323
99.2928996212371
99.2518314103827
99.292967507685
99.391313561063
99.4502421752497
99.3326609469909
99.2903059790867
99.0777768846883
99.2320215978569
99.4164575971038
99.2113877730419
99.4065343156074
99.4629492288979
99.3443904855703
99.2901538476377
99.1823750583508
99.1387391659775
99.3050256809808
99.2811853039227
99.1556285298179
99.2108065496423
99.3715326528588
99.4063631562786
99.2608729645517
99.1513128166447
99.1196051025428
99.2073781759745
99.2498229262366
99.1489405205404
99.1720471308876
99.103617441504
99.0194196472883
99.0873727997295
99.0983641211049
99.0779595329529
99.0679751683151
99.1021692290335
99.1223174029749
99.1433105044406
99.204578750513
99.2268712547348
99.1750004602885
99.1493866556081
99.1561259283779
99.1932184555646
99.1796139393723
99.1610092667864
99.1673221928525
99.1608783873431
99.1590436946623
99.1483721656202
99.1395471548942
99.0989410785732
99.0346104579835
99.0193186348911
99.0215175141708
99.0691387014927
99.1108045236273
99.0898479683189
99.1524623180517
99.217377948911
99.1755118926389
99.1884481785627
99.1949638213473
99.1912366744856
99.2252923840668
99.1811656238009
99.1397407806164
99.1158214184712
99.1048490798633
99.1418944852745
99.0919318420731
99.0746307056494
99.1187960072536
99.1492056941303
99.0805959934519
99.0353226879417
99.0781711454244
99.0529163051554
99.0347588746039
98.9653228276583
98.8775365078644
98.9070781551794
98.921350987348
98.7885439340925
98.7723122318045
98.8293318642528
98.7410071045749
98.6877196150808
98.6783362525201
98.6549323643269
98.766816170434
98.7561945269387
98.6039443417099
98.5592485175909
98.6328472536895
98.674224800438
98.4883231893347
98.4889633440606
98.4262306745844
98.3956037037219
98.4797688151763
98.4881400271092
98.5216948854032
98.5944478145359
98.5895893941678
98.5574121749499
98.5556942898841
98.5691478201439
98.6201632567644
98.7067210928355
98.7730230610214
98.7610042441943
98.6964451949032
98.6627267598121
98.663877438381
98.7301129693528
98.6982867751079
98.5133141598939
98.4734241885518
98.438827111458
98.3696092258011
98.1039987276213
97.8252173418767
97.6760674220119
97.5307744082407
97.3370743439051
97.021511803163
96.6966962826812
96.4255036135347
96.2356804652793
95.9261250025382
95.6334260070094
95.4497189057221
95.2001532608566
94.9966815272623
94.7442810314143
94.4982461720659
94.3657440046389
94.2549837127763
94.0265532306793
93.7751268501849
93.6797469740861
93.6360190373443
93.5168238195801
93.3188240841004
93.3016404048694
93.3190206306096
93.343084528721
93.3784892130224
93.4016638705109
93.481731926446
93.558164613332
93.657050190347
93.8275136039398
94.0646961934989
94.3278815141831
94.6805104930156
95.0726805706608
95.4143121272797
95.7103035048897
96.0720028249281
96.3975170632645
96.7001042336988
96.9350714332655
97.1037831239759
97.2518711987588
97.3749578436106
97.4980093563265
97.6096697387602
97.6720359619962
97.7252610692727
97.7745164940602
97.8336245789033
97.9126656816103
97.9660272416109
97.9633016444873
97.9919594880429
98.0276830774248
98.0115432426779
98.0541223720462
98.1205264594636
98.1359912516562
98.1647247634656
98.1894999419783
98.1821018792032
98.1995371206311
98.1968473823787
98.1783959519905
98.1668106758734
98.1524457676161
98.1143919383736
98.0724317407657
98.0258402191993
97.9852196324519
97.9729179271142
97.9484467472058
97.8964152510386
97.8445923586644
97.817113712731
97.7382147850441
97.6003200826579
97.4835107406983
97.3748482507045
97.2794030417345
97.1529198764437
96.9353732362364
96.6227020016289
96.2491024961323
95.8314727882499
95.3743640833286
94.9204671840962
94.462004684953
93.9827401886428
93.5135848172236
93.034712806992
92.5439086093939
92.0622983290449
91.4841139329544
90.7799580117264
89.9850602988353
89.0850631703697
88.1727306543261
87.534075115688
87.4052787003292
87.3878620434272
86.9832927839537
86.3034742613702
85.5976867776109
84.8854741690445
84.2015139122313
83.6296179504457
83.0988202360058
82.5396608987934
81.9365905640709
81.2925340523728
80.6871061431596
80.2050651583084
79.7549260629977
79.2237697953029
78.6519285809665
78.0835356377367
77.5505929363965
77.0836678072052
76.6959095339921
76.3985024354281
76.1407354180432
75.8618004516457
75.4386942524057
74.7949072590465
73.9840359034168
73.0583407403016
72.1447470195674
71.4034529189243
70.8070104388541
70.2781352741854
69.8462769714643
69.5394618575773
69.4170561471687
69.5808505752234
69.9447730116839
70.1962671085634
70.1783426672536
70.0130495206424
69.9038496148466
70.0559345570963
70.5441125278182
71.2548399227147
72.0272394521632
72.7788760218156
73.5315155570025
74.285076164045
75.0147738995126
75.7020288586713
76.3782185262157
77.0453870713527
77.6462230359541
78.2084163850242
78.742452617919
79.2153594423315
79.6685024583621
80.0689872152757
80.3952941559588
80.7255587880502
81.1089013262235
81.5395242926467
81.9242621896608
82.1797180597715
82.346790775972
82.4422639540645
82.5980995319189
83.1029942540737
83.9144632495303
84.7021414335872
85.3228497629579
85.8860039425798
86.5194267032973
86.9761152576223
86.7487424465101
85.6403204628323
84.7047661967609
85.5294945628464
87.4019065385394
88.6265061674493
89.2558196948635
89.7474383542722
90.2620438241512
90.8784928047528
91.4920572682332
92.0256989006478
92.428394269492
92.7763510252178
93.0435914030496
93.2192057018515
93.3795485540145
93.4750053657334
93.3881798032662
92.818253473258
91.3505082704429
88.7808406810334
85.8118258872378
83.8501054339638
83.5408749565659
83.8638240813117
83.5436489303219
82.30028664186
80.7549527005413
79.9282414038751
80.1137138032088
80.8330409474157
81.752662657671
82.6943086789097
83.5087012111031
84.2764832138934
84.8581594851366
85.3970087444179
85.8827882506755
86.1196458274464
86.1670525157895
86.0436555123013
86.123775803227
86.5908626754265
87.2067664365642
87.4563921125483
87.6722692566116
88.108590118507
88.3911037502664
88.0525015210216
86.4220379113632
85.0169827226328
85.3185376022171
86.4323467108021
87.5490640717051
88.1863704179366
88.6614030971977
88.8240284086864
88.8242964810812
89.5201227174618
89.4393707111546
88.9744441116399
88.3382271425175
87.8566052093864
