900
4001.38730172967
648.873616496703
1
128
8
98.3424021364403
98.2518753249115
98.3192598588889
98.4198411743373
98.3478923475323
98.2950331989135
98.317729961647
98.3383492252027
98.3985282178541
98.4111888017308
98.3465347191767
98.3346534922826
98.2820990152073
98.2417011109522
98.271057455324
98.370485225373
98.3609883077064
98.2967112730593
98.3534167231066
98.369766584218
98.3370187662146
98.2837919524703
98.3393291573614
98.5247178065997
98.4568359262212
98.1196005286695
98.060465070738
98.4436038728148
98.492623983912
98.4587495577256
98.4605643504734
98.3956876025507
98.4247229516719
98.4320335189134
98.3268363637366
98.3962935876831
98.4866181387195
98.6233528720735
98.2867998660707
98.0598595045106
98.5487684892282
98.617116326713
98.3952195013137
98.3742818312817
98.4336160747037
98.5914247445987
98.6829296249026
98.3701327532154
98.2285533587553
98.4891483419026
98.5755760415267
98.3893975945045
98.332960840123
98.446901342965
98.5996064528759
98.6254472847356
98.6432085362331
98.5554026963788
98.3327864731895
98.3520981884738
98.4744809502534
98.3835658619343
98.3418265366233
98.4331720775055
98.4601361017327
98.3988876917601
98.129939131444
97.9933613701389
98.3682332811887
98.7526519711106
98.5054680683569
98.4660184810613
98.7058243728978
98.564266260682
98.6451005601996
98.7235567074207
98.4758878762125
98.2082029315554
98.3619022932956
98.4668857389011
98.391498196599
98.3054692972004
98.0676396232202
98.0149361131443
98.5521095064564
98.5949584032398
98.1527744437351
98.0385931598175
98.359981523304
98.6074837244233
98.7419192685186
98.6480999776421
98.4659994827478
98.1129224639925
98.045971286472
98.6992363117242
98.9080616663487
98.7207072670251
98.3588763516691
98.1314143149556
98.5230252379661
98.7543684907291
98.6358282678775
98.4017109645697
98.3383435100917
98.5653023315148
98.8331750026578
98.8937955050628
98.7405515277046
98.7692709438174
98.7487197428738
98.9933507040837
99.1144221580427
98.9503057822438
99.0148534366997
98.6951796144291
98.6282656805621
99.1406119519967
99.0890800527824
98.8473513765626
98.9662729596337
99.0352634448904
98.9827496478546
99.3406599583328
99.5318467366721
99.3249120699098
99.2459669257125
99.3133165608331
99.2466556860902
99.2856920192221
99.3981104899053
99.3854183545657
99.1840984878546
99.0990304509732
99.3935077865129
99.4303710981271
99.4180087151187
99.5414361327995
99.4987141986799
99.5214996449981
99.4704269329099
99.3985915336805
99.6193180651795
99.6282858879071
99.3518810467561
99.6044987751163
99.6792622713272
99.1656598841494
99.2362907652219
99.5958988957874
99.6715914754177
99.6011542864983
99.5020734789277
99.5498529359948
99.5486345074714
99.5427946774003
99.4567910272054
99.4774331607906
99.4537968961802
99.4616256379878
99.5691537839478
99.5844679233748
99.6048878698131
99.5196139808909
99.5136293557711
99.655529954252
99.614927219266
99.6919559265578
99.8228453325184
99.6569201167631
99.519212823632
99.6274105280294
99.6532310214176
99.5246815601124
99.5623455697375
99.4919069362373
99.5124137017306
99.7318237931178
99.826844188381
99.6211341794785
99.4704816420512
99.5207225990257
99.5525400224381
99.5642677613033
99.4697087028502
99.6878345180643
99.9091193333825
99.5912135009581
99.3751414506179
99.5394987834007
99.6440748559365
99.672244779659
99.5724176163488
99.5125099905418
99.5168677020486
99.3740226424782
99.4225826363482
99.5608728223244
99.6594069993952
99.6825864896866
99.7378351826087
99.7059110683582
99.5977696335188
99.67711490406
99.7371093339553
99.4985204062009
99.3867536052954
99.5443609327478
99.5630986577763
99.6359774968001
99.8055613951186
99.7239243125174
99.7520732545766
99.8120654735275
99.6065936823671
99.4386119071112
99.66053342202
99.8457837098607
99.6650982428047
99.5329407699521
99.5289432168847
99.4857391303373
99.5443733328759
99.5971399227254
99.4244310703578
99.511114600281
99.6734768128168
99.6937115527341
99.6241260033034
99.5608668698658
99.4763221182086
99.3896156145463
99.4106128526026
99.5226483824279
99.5821204097466
99.6051650206249
99.6229897767324
99.6084132947666
99.4791367419465
99.4759989303263
99.535591105419
99.5523332319114
99.5328542078084
99.5290823893098
99.4636181710947
99.4130078642634
99.4576822003404
99.511050803095
99.571566424309
99.5707095991849
99.6168902067029
99.5640956961835
99.4604632452598
99.4445777991479
99.4922459912364
99.6894278647899
99.674707832281
99.5422125756727
99.5611152529255
99.6241997868759
99.6108986037286
99.6687365391045
99.7471549902427
99.7048262561056
99.586626561734
99.6023284602345
99.6816996739475
99.7311940851204
99.8511459837105
99.8653321779829
99.8018121993518
99.7588783543352
99.6845157449023
99.7161821246334
99.7875155404306
99.9086302462483
100.014136397191
99.9984059892489
100.055108899386
100.219656276322
100.271834073088
100.345287054625
100.350447580863
100.325470223892
100.418958468383
100.542769426645
100.823014861122
101.171179257582
101.374118360478
101.487617262007
101.35696208119
101.070819247158
100.744154624154
100.532848206939
100.408185121079
100.288147120945
100.158564051626
100.028086126479
100.005258469099
100.014939442629
99.927123363834
99.8878031359186
99.9760953224243
100.006371531757
99.949866122533
100.010210312748
100.24824114189
100.394472026486
100.303998810574
100.210451080724
100.087471000551
99.7774629408149
99.4991890483761
99.467612613349
99.4795986851448
99.409184365139
99.3047602383084
99.2743816431608
99.3203767991818
99.3053629316259
99.2053386756626
99.1447165928656
99.1872836413646
99.2446670730539
99.2417071141786
99.2475574906638
99.2372088480463
99.1853372298147
99.1517589144817
99.0899015521576
99.0860719641221
99.1755258826828
99.1879442706926
99.181975667381
99.1787881230693
99.1224996149222
99.1177505221877
99.1369563614318
99.1230664152587
99.1067925260021
99.1210028031858
99.1237837769238
99.102766398844
99.130343075597
99.1339461740225
99.0769074254811
99.0700484596354
99.0916445740653
99.0767923620151
99.0709823152297
99.103021979168
99.1232161741282
99.1122592233487
99.0682383499282
99.0620141207593
99.1072684917104
99.0745433074828
99.0448673546065
99.0466862633782
99.0057312006177
99.0037956955527
98.9906652141049
98.9501611505152
98.9327899025123
98.912722664616
98.9257586415678
98.930213561132
98.8962667688841
98.8741268243753
98.929884481894
99.0140724235749
99.0044406592898
98.9452558607889
98.936182451373
98.9915472771171
99.0528078024606
99.159431491895
99.1670128006679
99.0684953501699
99.0881096761914
99.1415802054683
99.1056613790864
99.0788181562342
99.1015463374569
99.1322375039436
99.1754122432571
99.1878563855739
99.1034792243554
99.0733449408655
99.2490024499687
99.3198216538131
99.175550678222
99.142781567032
99.1622224890903
99.180882152118
99.2390985844345
99.2659195881428
99.2402460007573
99.1774767838489
99.0803517735581
99.0732073453192
99.1282506428357
99.1425951140994
99.1716436396641
99.2025820687904
99.1741116726888
99.1573612862581
99.1518200362109
99.0581862490334
99.0397090441906
99.184111345591
99.1289777292817
99.0739614882008
99.144200179767
99.1072798477542
99.082036226223
99.15592848446
99.1817594364258
99.2045219709688
99.2412024132534
99.1556982813919
99.0991014238385
99.1633559436716
99.2444615643846
99.2577694513897
99.2323788375942
99.2910979181996
99.2966475399281
99.2201623645428
99.1901880995709
99.1392695003078
99.1864984074784
99.2289248398894
99.1262328203951
99.0175790593186
98.9148315772501
98.8351637313766
98.7514959633735
98.7183755197426
98.8643564250231
99.0307449892138
99.2499704380385
99.4648979996772
99.2290399604308
98.8090602570307
98.8012352673566
98.9559770757375
98.9684943940624
99.020595006955
98.9905563718111
98.8967671183467
98.911111248011
98.9838183009041
99.0168410022757
99.107734701818
99.1889635889603
99.1483424592179
99.0466394615201
98.9915688369332
99.051632624107
99.0368822568675
98.9981954869487
99.2248591467821
99.4727372729355
99.3954424508355
99.3424105290803
99.5054052789147
99.4900078568123
99.6380359911299
99.7681931346576
99.7381123344275
99.7434267634782
99.7621923399568
99.9527871403618
100.125995761474
100.047852374448
99.9507444165438
99.9455636738781
100.05182763077
100.08758119444
100.069626251217
100.130890614239
100.260591005994
100.353702963742
100.356406259531
100.436490127422
100.379347055432
100.244970539647
100.444816938039
100.784131692801
100.911029313734
101.039479525431
101.34870218574
101.514582481404
101.237088963356
101.232729364304
101.417675122292
101.277852307381
100.741889759814
100.540420068449
100.576383182574
100.442943590969
100.218864751278
100.011633894217
99.7823376033212
99.6354901101058
99.7527997918187
99.8488346398441
99.7926558722054
99.8033524679118
99.8094585469153
99.7787034828606
99.8787622382622
99.7844204109647
99.6709560877201
99.8052742439265
99.9572522995553
100.005099642168
99.8532340192153
99.8143805145057
100.111147913046
100.168544384485
100.065070989747
100.063756318993
100.351504055743
100.556730884713
100.926827583456
101.289835729138
101.040500283316
100.830102640114
101.002824118955
100.759434164191
100.763324960565
101.461459278692
101.435169298514
100.920038874386
100.89276601123
100.775084649428
100.410850287613
100.536744765768
100.683980876731
100.70014961351
100.768956557829
100.788714468254
101.03002326736
101.211825873377
101.075418847936
100.801381280716
100.679738721815
100.508054531011
100.277645855766
99.9722246330146
99.9866930667673
100.004402797076
99.8625051406407
99.835528790037
99.7987008990638
99.6633125115368
99.5980675949775
99.5322427900134
99.4843318837595
99.4713316163181
99.3651021096308
99.2163013640664
99.2461790421919
99.2969782202271
99.2812176544182
99.2667929925189
99.2276744309045
99.1903818201014
99.0971976880061
98.9927492761254
99.1708703819397
99.2051440827957
99.0706998950608
99.0398362670606
99.0632956018356
98.9033571159472
98.7956353418094
99.0376528878026
99.1145586453963
99.0159638542563
99.0025466656904
99.0708398246447
99.0695570460652
99.0742266771797
99.1051867148259
99.0831570528074
99.0715506244311
98.9278847826139
98.9486197512266
98.9936025287109
98.9725594068569
99.2492961638578
99.2921624271007
99.2476472208893
99.2985455480077
99.2196298877766
99.5483726796743
99.9835393059615
100.027111795255
100.248879395215
100.596885929917
100.781854514942
101.301835196733
101.722698977425
101.755029419152
101.459252838298
101.279958042423
101.538588417203
101.430347675308
101.129130166556
100.863117577357
101.33918356883
101.261697176337
100.551410496082
99.9623750170001
99.6471826660082
99.9618010249871
99.9460668523513
99.3412887945489
99.0632440811655
99.7862907919674
99.6480282910462
99.3552372567814
99.5015075725183
99.6032011576168
99.4952011170042
99.2856130071482
98.7158642164173
99.1485949805013
99.6193914480642
99.6716002460892
99.3904271814083
99.0094796762452
99.5354179114588
99.4637686424081
99.2492601036119
99.3475745288718
99.4094784815698
99.6769428160112
99.6018036115399
99.4798617089691
99.5396312071783
99.4985011118645
99.4651504008135
99.4580758111551
99.4398705968304
99.381573470259
99.1918754593409
99.0478578764953
99.2823461349544
99.2890774103181
99.2300455111009
98.6519248816686
98.6550591122772
99.535730388534
99.2688723716905
98.7811970247819
98.2692981474062
98.6806634099617
99.0242543971086
98.6024956118237
98.2546585399198
97.9208549201371
97.9630952413579
98.2066693864612
97.9765035577233
97.2579508713333
97.3577701466798
97.5808017511235
96.9685499897134
96.7903643481512
96.5637492067192
96.5534331948636
96.6088352305175
96.2823773582814
95.9424345781227
96.1953565841452
96.6154771091842
96.4177754185154
96.0870369020015
95.9167084658933
96.6154262640691
96.4750608320369
96.3133170313364
96.346720162301
96.1485039928916
96.4294714604884
96.700190564894
96.6659580456778
96.6231109101961
96.6487328801794
97.2272063488218
97.5115304621066
97.594137983919
97.8615044915705
98.0917378565747
98.2230658105123
98.6931210278997
99.0588630109043
99.324116295995
99.7715020348728
99.9578571810399
100.084762380084
100.389384637403
100.539068348844
100.489460618327
100.515768715208
100.493384985106
100.420703632685
100.348363309552
100.209762836252
100.02876440797
99.97316878883
99.9819908297126
99.877686040913
99.8107123289184
99.7827473322395
99.8098453977587
99.8729133968309
99.9085535271536
99.8937049739303
99.8566594542296
99.8468033733525
99.8551969096714
99.8354026270138
99.7947083586993
99.7754467387721
99.7734006278321
99.7894112163897
99.7794851031394
99.7147227192446
99.7032811631351
99.6993981473715
99.696836654801
99.7273333212338
99.73949721906
99.7161904531743
99.7186529284608
99.7882546814101
99.9655388465143
100.221365623174
100.380087327452
100.283402606751
100.068373550446
99.9888304295308
99.7377526335992
99.1657979983993
98.731274415111
98.4309295744366
98.0642423396803
97.6327975379847
97.2144434955231
96.8583748368
96.5684285323352
96.3161460173743
96.0530576324844
95.7462407717545
95.3970881767013
95.0300687320601
94.7513514199436
94.6625910751154
94.6079888650288
94.4110531357755
94.098799565106
93.7460725328907
93.3972909368058
93.0273579218984
92.6753995994335
92.3528466040187
91.9870134852506
91.5247445528024
91.0061038636295
90.573941897122
90.2704261762101
89.9615247706457
89.6083143230429
89.2504280411633
88.9087361827703
88.6215718270794
88.3810479082837
88.1993954628592
88.1386827797289
88.2164405752604
88.347655756206
88.3749122786081
88.2430074175628
87.964542836569
87.6419435212703
87.3421330688821
87.0472263060461
86.7822208174982
86.5288310348666
86.2445513992691
86.0486617642589
86.1310763191807
86.5226637821578
87.0194006381223
87.3620226794713
87.4568531237519
87.3395484541991
87.2766630398517
87.5309749386039
88.0880947798206
88.836520367533
89.6334563833723
90.3645512915772
90.9640655721895
91.5185106762266
92.0569431007538
92.5072181994367
92.8939046760532
93.2212856262123
93.518870353451
93.7710699509592
93.9500264440904
94.1568783839902
94.3488455403892
94.4147134102053
94.4586440840877
94.5511371922337
94.6469708038454
94.7405459850113
94.7669632397381
94.7652591047594
94.7335912784374
94.5820645804937
94.51685181097
94.7344570763213
95.1487063355087
95.5547910803426
95.8333835579655
95.9987091019176
96.1885362681909
96.3012912108503
96.0520757024041
95.2929504895
94.5946568555374
95.0351922790993
96.1982993368003
96.9299254685516
97.155988153149
97.2452426901768
97.4382717907551
97.6947278889496
97.8964254213348
97.9734654138377
98.0036332858584
98.142768200991
98.1926215043904
98.1487748328952
98.1894470550854
98.1600826821531
97.9253541756023
97.6046391183601
97.1330406067817
96.1218051235619
94.8549145913875
94.20880553966
94.4757818783578
94.8650426873328
94.6910242936639
94.2002966744226
93.8939254027489
94.2041367248755
94.7299071267495
95.0406750947573
95.3212828937162
95.7060973464511
96.0681171903029
96.0281563510326
95.8799220718539
96.1466169986379
96.6252327910996
96.7769141695293
96.5600028396268
96.4512898080192
96.497452933604
96.4974845902802
96.672619112763
96.8448352938991
96.9528589511988
96.9822700017423
96.9519732793621
96.9381402969098
96.3611777134832
95.5082897947865
95.6777128755551
96.4494166784528
96.6762649476169
96.6957266288671
96.7959636638818
96.8854319271398
97.1713719924511
97.3163652333967
97.2152800584141
97.5380542948344
97.5652522991431
97.372750810618
