900
4001.38730172967
648.873616496703
1
128
8
100.340162361632
100.276092917335
100.3652312616
100.319717097072
100.270914740552
100.31357872226
100.322326872959
100.347640006235
100.357017483801
100.271486303601
100.247996694669
100.346489477917
100.39134274772
100.307851270638
100.278361696251
100.335834855518
100.353920737258
100.336749115968
100.252450969304
100.255073415184
100.340660874138
100.34215915189
100.211840231102
100.093874821578
100.165516168101
100.370442596552
100.501947082546
100.350087951574
100.204369897388
100.220843701589
100.243399612273
100.300126974682
100.298427207288
100.294296442547
100.293608191899
100.35278394349
100.361945497235
100.197790076165
100.301822024907
100.431802108669
100.176868120715
100.078165082703
100.278915078102
100.453434387623
100.301863751337
100.167702727497
100.180782327483
100.243789193816
100.349821513332
100.345820924977
100.17906558994
100.105392762435
100.224091565609
100.219574716585
100.166779956439
100.161305843266
100.208159626229
100.290098589604
100.251672445498
100.25410381026
100.365117243909
100.382413713904
100.326939011583
100.299862648563
100.227058007449
100.150893164217
100.314054769837
100.507059170584
100.409380482039
100.217888463936
100.217518019779
100.235393214283
100.217901386411
100.31369930384
100.263747568621
100.117136516599
100.104160681034
100.194358007804
100.100765848822
99.9090709662522
99.7756949550096
99.6390125505616
99.6354760798499
99.6750658051262
99.7155026224784
99.8379946160831
99.8920805031276
99.8258064282898
99.7994701456023
99.6610549588875
99.5775903035871
99.7739525170291
99.8709188231809
99.7925054074956
99.8757996056275
99.8055496079135
99.653312459796
99.6095105489059
99.8017347780213
99.9001883116286
99.6821574270673
99.5099163423136
99.5556194603318
99.5740191316611
99.7658204894953
99.9098932530479
99.7948772688719
99.6474543755523
99.5398559479203
99.7213389654929
99.9308485067475
99.8594990001226
99.850580964273
99.7203995421437
99.5831984773051
99.662343884251
99.803224270441
99.738145662105
99.607959524366
99.4036165054738
99.6841855762087
99.7943637021689
99.6007217961559
99.4336336412523
99.5029057925439
99.7051484249947
99.5758147915586
99.5997949058371
99.6151211413377
99.4290800326134
99.372792972714
99.4738257416803
99.435291524482
99.5363185681265
99.5755595796927
99.5970296796599
99.5609753868133
99.4436612444713
99.5422460776617
99.7152510314609
99.6834961609045
99.6461904977857
99.7917243162022
99.6815605391412
99.5438915754385
99.4865301517253
99.4394521743961
99.5081008109734
99.5581422606551
99.408461767532
99.5331606065161
99.695431670112
99.3622205588077
99.3419388228551
99.4946673994148
99.4088326034451
99.2528704320258
99.3502728300811
99.6793411044851
99.5933671230628
99.4744154832241
99.4790044750081
99.4777897107312
99.5628075816261
99.5327090819946
99.557818120748
99.6537338072565
99.523610358614
99.4525234349832
99.3946962046756
99.3876895601792
99.4730999647506
99.464649889951
99.394031777359
99.3473686483808
99.4543047050979
99.5697310892439
99.474491855347
99.3678416226756
99.2906439517219
99.3585019461883
99.4244259690923
99.4087035238045
99.4191494499713
99.381512496219
99.3230342822888
99.1949035603489
99.2015116052313
99.4750277901624
99.5039342713552
99.3075511680609
99.2801317535032
99.3889850108615
99.3835737716002
99.2460525279374
99.2702386780174
99.3705642838165
99.2849257334084
99.2398119068649
99.4443667017792
99.5802126309335
99.5159063074934
99.4817360984177
99.4464633855811
99.4935367790667
99.2990981863696
99.2127558569195
99.3820049647536
99.4393103060688
99.3892004057073
99.357072664065
99.4049569886165
99.4956937011765
99.4545510307793
99.4925674679668
99.4354175059238
99.3746502986989
99.4516117802035
99.4489748532119
99.4438409926826
99.441121616559
99.4298972771298
99.4678469583268
99.5453561864739
99.4098256531269
99.3025077542572
99.4479901168155
99.5720435900163
99.5798673358862
99.5734383159968
99.5248565181253
99.4385508846835
99.4599298290679
99.5356105465561
99.5238300851918
99.4790969683515
99.429632508097
99.5341285263811
99.553370989513
99.4899884795258
99.510936785955
99.484378191518
99.4122761394786
99.5901578790335
99.675721277144
99.5609923022057
99.5121440362352
99.5712792498843
99.5737967956814
99.5169213926464
99.5520965017026
99.6329390657208
99.6816532655711
99.7640057032885
99.687777982858
99.6146928991085
99.6824759606418
99.6274822115259
99.6969697446712
99.787360531303
99.7231241873304
99.7106829238606
99.706728094255
99.6840339586367
99.6681281330842
99.7266236388416
99.8107299703957
99.836552036141
99.912718555752
99.9359721283873
99.7766673922149
99.7594633999819
99.8595432768586
99.7646252700569
99.7158162363012
99.8712113471866
99.9483571309362
100.049874975448
100.222459398313
100.226516046301
100.146761213064
100.168750341338
100.201443822526
100.259872399873
100.370970227883
100.403613886837
100.508843577896
100.756220692762
100.875355204862
100.885123354597
100.834685922826
100.623207028361
100.403720348654
100.338536411548
100.317758984946
100.209485973736
100.049905886908
99.9754357412065
100.030663601988
100.000235884413
99.9614508417119
99.989513800601
100.020409612907
100.012144529699
99.9914443550483
100.110994429899
100.323580976202
100.416811867717
100.405739423766
100.287249021214
100.037989076722
99.8626348127206
99.8525169784067
99.8904291772459
99.9254543760289
99.9300831093902
99.8706197265014
99.8401235446422
99.8535875658521
99.8112897476416
99.7610210466205
99.7924996149815
99.8568088341921
99.8356621455179
99.7934339690088
99.8209464355723
99.8460203038707
99.8503443891562
99.8131746293273
99.8042680915806
99.8128926120701
99.8180928709678
99.8480490466247
99.8568309974724
99.8386808416204
99.8260532892454
99.8226499611449
99.8017894458835
99.7854598460292
99.7925597261815
99.8178340807001
99.8240003426143
99.8178121375763
99.8366294199667
99.788401199135
99.708160887679
99.7332169047825
99.7905434898309
99.8276919382594
99.85963863289
99.8523397855486
99.8440021193077
99.7928226880376
99.8117706396925
99.914898059365
99.8855182922191
99.8390390315973
99.8756797984353
99.86579474166
99.8057296577413
99.7548206329372
99.8090964319927
99.9876443120797
99.9898477193469
99.8586769500214
99.8218517097057
99.860904679164
99.8719446853693
99.8212782845847
99.8644888507285
99.8945654824445
99.8992058473231
99.9567795823694
99.9521662737336
99.8979587919604
99.8451277635889
99.7871265915823
99.7558486699207
99.8183448516208
99.8963504105043
99.878110102117
99.8473430471307
99.8927797612531
99.9839139606924
99.9263769263364
99.8208118918278
99.8546582067434
99.86310753583
99.8119806734731
99.8120343068568
99.7963440158299
99.7732066109731
99.8034148621903
99.7839120592472
99.7806662736867
99.8153427773569
99.7695001041329
99.7370808438334
99.7925702255094
99.8027498110585
99.7476669315595
99.7759581127476
99.8673659101165
99.9402845041218
99.9092019182238
99.8348070569821
99.7437028013816
99.7410849183335
99.7927013966312
99.672042439573
99.7046035264565
99.9340068723695
99.8864828858543
99.7595580272814
99.778189071555
99.7918262301849
99.8004310311049
99.8661643016634
99.9528939106614
99.9340010144546
99.8166006713945
99.7892905795753
99.8252782875121
99.837572463327
99.8710497188153
99.9399190161774
99.9615262867335
99.923175120104
99.8702539001427
99.8287058327041
99.79518574639
99.8535148845726
99.9362466282399
99.8967834951009
99.9046503934283
100.046387751584
100.210859404972
100.26010580609
100.304895018229
100.381292942425
100.441667713302
100.361419647559
100.11500891929
100.062243746453
100.21204057305
100.384094549976
100.392724496913
100.276682850178
100.212184403351
100.226683712091
100.273844508891
100.182984629045
100.068702939097
100.127914939334
100.157142718376
100.081583235036
100.024794570204
100.010312125895
100.048927120174
100.099270134507
100.051794853745
100.028671785101
100.12397987857
100.100213346565
100.051146996268
100.120436485985
100.094087110281
100.131311014175
100.163221001731
100.063344448632
100.120076762627
100.154482013473
100.048015312832
100.055145916344
100.093710419905
100.056192226492
100.126174598891
100.432145049596
100.382821375261
99.8972347090502
99.7429129005943
100.073160400334
100.197119597555
100.107810503519
100.116705615855
100.434847041663
100.608594670109
100.010400718874
99.9604917358615
100.400349918732
100.488060996987
100.191977632572
99.9787563115382
99.8283214163997
99.6419555085352
99.5205289370114
99.6764767753132
99.6770474488699
99.7285375329782
99.9392333841334
99.9345900325072
99.9247415611546
99.967686399162
99.8600830686503
99.9461054291098
100.142603470691
100.252687292565
100.36483368113
100.327810322961
100.170895965771
100.082640731365
100.118772345173
100.082561405121
100.122130377531
100.215691032052
100.285666128121
100.275498242317
100.338103462018
100.387567816175
100.294145840928
100.274436025066
100.129827003026
100.167246660794
100.59519429279
100.617027614879
100.384229626837
100.495100572219
100.275534640786
100.17636271857
100.111812255684
99.9314215446389
100.100604856018
100.021461617874
100.19940295813
100.367880567136
99.9273503392589
99.7584597226343
99.8186678746418
99.8908996109843
100.056834765255
100.265100739041
100.299567922815
100.071936621501
100.185838204983
100.115542981977
99.7646958874693
99.7030672296595
99.8359114814259
99.906717865784
99.8001171103499
99.7999535370137
99.8668614232739
99.8866654093615
99.857375438802
99.8232889728935
99.8182826220476
99.8953104795023
99.9104775124513
99.7648705283275
99.7436812571037
99.799115624719
99.8354748292279
99.8400580326945
99.8093426287897
99.9170584614572
100.008977719858
99.9164662660475
99.8983519156661
99.9192848571895
99.7850009781023
99.8135858143365
99.9946120195575
99.9370833838086
99.823102770349
99.8438754245147
99.8761812286732
99.8438049540654
99.9140253641252
100.034617119755
99.9477842185207
99.9357879074652
99.98802831938
100.065692191186
100.010708620342
99.9444680763799
99.9899436121567
99.9379116640198
99.9205661238211
99.9879141884248
100.043183470271
100.046785126522
99.9974265893704
99.963737583054
99.9470153042641
100.024971569078
100.086029577743
100.116206480511
100.239042846117
100.217810746049
100.147375149254
100.267230804378
100.373943360182
100.485571767629
100.692999222563
100.693266586997
100.628458616237
100.644916049217
100.665498655544
100.578557857301
100.308429812604
100.32550329392
100.511746594139
100.667077784824
100.430195757157
100.260090686584
100.337106753518
100.413949085533
100.36782167461
99.9807851478513
99.8201388141654
99.9661470318897
100.107121228285
99.7914176487733
99.7536308362438
99.8358655241572
99.7132173022337
99.6039543787901
99.5397724424192
99.5770086057928
99.8728436840791
99.6974649779176
99.4151248343632
99.3896160789417
99.4625271458942
99.5511710145883
99.2901769776654
99.3732253047169
99.4161076192459
99.2612505170382
99.289016596648
99.2149422031331
99.2660588366971
99.3727684556155
99.3579235245
99.3709042831246
99.3852619272096
99.3889444372084
99.3864443119947
99.4189458459531
99.5425759802682
99.5950955189617
99.4849437264684
99.5290519727778
99.5468634011512
99.8503754432309
99.8058282301164
99.2976135348103
99.2911536072024
99.3464228364149
99.4547142529991
99.2127874596729
98.9085698882412
98.758407953967
98.6225636184666
98.5737330253639
98.3069687626207
97.8468613695519
97.6343000938939
97.6213398439288
97.2391805515414
96.8903224844284
96.8459702652269
96.6190498492951
96.4382053667867
96.1875248424352
96.0059319407767
95.9795836113399
95.9007188525309
95.6521874801236
95.4641030847726
95.4628756821017
95.46280029441
95.3399202133996
94.944317510368
94.9557477574193
94.9706619055286
94.9548796465527
95.0642950059669
95.005837266318
94.9469709625421
95.0164870849185
95.1010893746241
95.2420106254392
95.3297723044622
95.5607394249149
95.9794901898528
96.4016097338721
96.7543417512273
97.0351084442113
97.3088979351148
97.6120821367279
97.9534381875792
98.241950842585
98.4916726455575
98.6666091319383
98.7551715689421
98.8518036348714
98.9656529870484
98.933576582411
98.9255162937826
99.0153809096501
99.0625031120703
99.0924712567556
99.1102185080745
99.0844741142071
99.0390814587101
99.0527475218263
99.0866720404643
99.1069903158793
99.1078572335783
99.1205382146958
99.1470393862105
99.1717096699989
99.1820968011853
99.1360456329599
99.0847307347626
99.0976361707109
99.096459387347
99.0783585669927
99.0587791058114
99.0187115400342
98.9873956202698
98.9501280170238
98.9249276961311
98.8896739471466
98.8666117058403
98.8418485164962
98.7798194776978
98.7161065086409
98.6361172760874
98.5594201281009
98.5398014199033
98.5259489692319
98.4380039563158
98.2401860952549
97.9662043369112
97.6692483352112
97.2928967514391
96.8586818563718
96.4466746417344
96.0145445543987
95.5641557958479
95.1127919533885
94.6633958983759
94.2008726547024
93.6963893634215
93.1423779787818
92.5385588006938
91.8315799657744
91.0073158577282
90.1460665765917
89.5225452732942
89.4352484534488
89.436210438687
88.9609689936773
88.2651120084823
87.6011478762522
86.9418795336711
86.2985683099535
85.7203268398518
85.2060633618614
84.646184694727
84.0634813761885
83.4960041338967
82.9487597341814
82.4588813068291
81.9623084523649
81.4298883386534
80.8764688864736
80.3041812751445
79.7831463210015
79.3296404889126
78.9195992079321
78.5867097154004
78.3569435272068
78.1755700209091
77.8762793988598
77.2786151849215
76.4691283857101
75.6519842267476
74.8923112110104
74.2703785614772
73.8023293709049
73.3845718980687
72.9484553931226
72.5558101449791
72.4184608770577
72.5768457839423
72.8748367049837
73.1446225953362
73.1806152724089
72.9941036303079
72.8676118557104
72.9833046937439
73.3796434887822
74.0359303228644
74.8051805451037
75.5292927543327
76.2436434670687
76.9950489962113
77.713854611165
78.379573925022
79.0635970054829
79.7263266931622
80.309932030352
80.8479684911271
81.3359496938714
81.7825810951287
82.2260099004906
82.6321936998068
82.9297399901852
83.1967312068628
83.5137413802957
83.8939992567175
84.2819266871118
84.5655163960061
84.6968938965647
84.7145529995768
84.8701053439984
85.366625096566
86.0344261666258
86.674706723228
87.2910678573918
87.8682728977336
88.3763846519909
88.7279334624258
88.6104618765545
87.7971413358515
87.0654259578797
87.6982526363806
89.2509264434617
90.4012180159817
90.9602695119615
91.3273855267291
91.7773097911944
92.3058703409452
92.7984318444262
93.23774530449
93.5840976665675
93.8446531215251
94.1807449485691
94.4876254021837
94.6549048666252
94.74661457458
94.5761247484969
93.9846870005102
92.7011874330866
90.4693485375297
87.8863910128002
86.0610407965904
85.6679470040261
85.8885593608032
85.6223562436487
84.6660749644327
83.2621735235586
82.4546632793671
82.725917833389
83.3884413246363
84.0939307048604
84.8055776273204
85.5910371518852
86.3176507281734
86.8846412796289
87.4475291817314
87.8964771333653
88.1629736574008
88.1841653534082
87.9976441742997
88.0381165646542
88.4302052280171
88.8421531176368
89.1262968114122
89.181251286459
89.376265415892
89.8891422206428
89.7305309367555
88.1765702359386
86.6639817688148
87.0052925655375
88.653723569588
89.4361754918
89.7675305549663
90.3708284876237
90.603222002315
90.8747377817576
91.429420128518
91.4129402007141
90.9517100140588
90.5630690382296
90.3143055219559
