900
4001.38730172967
648.873616496703
1
128
8
96.5837863734522
96.6350707321558
96.6101692513428
96.5927003611567
96.574673514558
96.5192076230317
96.5340039015022
96.641021855832
96.6918167479649
96.6518461149041
96.5155658315621
96.5398680267287
96.6637807835026
96.6372120082815
96.6002036113845
96.6606933818289
96.6506806221419
96.5476482328693
96.5201457144676
96.6271802244951
96.6881325589974
96.6570164213729
96.6242415338283
96.6790409742792
96.6294466360717
96.4775269026268
96.4457436744924
96.6854934125975
96.8011531589671
96.6614992326331
96.5897914435078
96.7071086857226
96.7860587877154
96.7232258759185
96.6722488387976
96.697720250842
96.7324308326613
96.8155138219255
96.6816385798365
96.5511102343332
96.7567899546729
96.8173742793973
96.6842592668693
96.6072708123631
96.7158863361098
96.8280361127059
96.7665909643867
96.6420621646732
96.6874069901367
96.8047695396783
96.8474406767935
96.7594749733347
96.7153941147312
96.6177257819003
96.7312496067081
96.9689327522704
96.9005535227241
96.7268170807654
96.6565553971684
96.7116326616981
96.7431094941606
96.7180535389788
96.7284586054532
96.7080893799526
96.6134764103994
96.7054553954592
96.7923661086957
96.7153786936558
96.7844529954069
96.9906237745078
96.8558055082741
96.628330251907
96.8352257700373
97.0382412410087
96.954141444586
96.7862101199673
96.7554873094964
96.6245491902413
96.706305770224
96.7290030602946
96.3549388135255
96.0655554245873
96.0173875351061
96.0700359239656
96.1564902986971
96.2707150393742
96.2503528965904
96.1047777188539
96.2746769844205
96.429431593569
96.3659366112286
96.3050874322977
96.3179971565254
96.2578857453442
96.2051125439279
96.3787655338282
96.4658448871401
96.4359438769403
96.1182564923325
96.0360290632666
96.3079083604441
96.0916393681373
95.8518454978983
95.8588547254372
95.9167364610183
96.2039591939358
96.4451313640368
96.5073031945641
96.5256318292713
96.3785244969429
96.3653300793489
96.6086516853844
96.5769488589702
96.5705594710513
96.5832635310738
96.4244131768566
96.3897985494902
96.6150909909448
96.7114367318272
96.8275295738543
96.863849516252
96.8717519330095
96.8346849278694
96.8356599435422
96.9516142637613
97.0200869805316
96.8852929706982
96.6918396361104
96.9535783368778
97.108623379374
97.0225077806759
97.0973174524739
97.4131600825835
97.5958555894801
97.3790557821851
97.1799753853361
97.2427978994982
97.4441606402709
97.3508469957492
97.3067185006012
97.4375339396339
97.7050333042195
97.9005727433715
97.7520386289857
97.6554514396236
97.8736797803551
97.8172704381369
97.5189067355777
97.4798516402038
97.6121882382061
97.7700104748378
97.8860261614318
97.7463063704676
97.3184640265761
97.3853984064615
97.7071058594824
97.6943728966367
97.6837570222792
97.5718277451664
97.7479788217648
97.909972515895
97.7660375328655
97.6333651996144
97.6526465150209
97.8112256887148
97.9550902240039
97.8618548521893
97.8531909646948
97.9402790783286
97.9726322362527
97.7962155807012
97.8109574003201
97.9135254229718
97.8935237039246
97.8852236400661
97.7753785791837
97.7993055943361
97.9400036714301
97.9854561663391
97.971975389995
97.8219761078921
97.7366137383571
97.6862813735295
97.6457925302447
97.7526887754417
97.9394621349585
97.811725625926
97.6455707590568
97.6587202244301
97.6541292537021
97.6533023766042
97.6143326718047
97.5971834339546
97.7570581814484
97.8637721783134
97.7341423704872
97.6346503548664
97.7323242062107
97.9768580876834
97.8986608437024
97.7333431859649
97.7162783656856
97.5282711764526
97.5637084143563
97.7787159927256
97.8987782830275
97.8988381457154
97.8302235290645
97.7439248929352
97.726602118249
97.7038279084995
97.6146999476092
97.6773045317518
97.7687595292172
97.8678903377013
97.8547744048027
97.7214850557446
97.7093874976863
97.6754150232122
97.7528846519366
97.8934082957082
97.8866100171603
97.734417211566
97.6633088215349
97.7804552749919
97.8067307394282
97.8475441427164
97.8338158818097
97.7480212444224
97.8844712542698
97.9431963937132
97.7005705962765
97.5835394097487
97.7237903997421
97.8647433922189
97.7993182612873
97.7279602417452
97.8137752173394
97.9309765889188
97.8724195882555
97.7386250143513
97.8715439288661
97.8833998405153
97.8269870731758
97.8744913986899
97.939061094
97.9959455464123
97.9860054087067
97.9383867025119
97.961942569079
98.1144183312217
98.1532330954728
98.1300554042617
98.1363733466337
98.1663323372295
98.2857999675896
98.3439890383974
98.4228819463383
98.4409359652305
98.3828898965698
98.4798934411644
98.5780135646424
98.7107828807472
98.9766289527494
99.2097501438173
99.5115917174544
99.8744898742881
100.17586618397
100.260247328941
100.223400477123
100.254487904385
100.549611368814
101.067257562466
101.59687362548
102.238028204586
103.095061745307
104.198596948757
105.658227475925
107.273983066326
108.757954722321
109.631538296032
109.841952845657
110.14442438559
111.143033792851
113.310661498149
116.906015158851
121.818779776005
127.59747229204
133.24237688457
135.549833720066
132.678365231193
127.288950761621
122.216469328524
118.149230044578
115.125766852491
112.874939853296
110.967784981813
109.324531671778
107.86772653867
106.610230496513
105.99903032526
106.141235705401
106.7417787153
107.436725173348
108.325424331663
110.412457176772
114.456710449265
118.789385650396
119.418023373433
115.24622027266
109.640918559278
105.37717452159
102.857322635134
101.412178841229
100.434645263734
99.7925656637034
99.4477836716096
99.1430229100253
98.8897946357914
98.7049001765362
98.498311686242
98.3649414222592
98.3079210755407
98.1981818890015
98.0630404393768
97.9984672902023
97.9366179824259
97.8897049412611
97.8627573246608
97.8246545381663
97.818139515759
97.8116747466254
97.7836971525962
97.8047497328366
97.8386522535018
97.8077425030647
97.7354035641062
97.736949137946
97.8001184677897
97.8284244713295
97.8168734878849
97.7562363132627
97.7658371931726
97.8143416508089
97.7905239025825
97.7796861827809
97.7227149633229
97.6656421212873
97.692654801174
97.7102311105604
97.6929481233649
97.6900196647677
97.7154052161801
97.7104701563386
97.7015540938327
97.7361228499703
97.7587218150869
97.7623156016308
97.7276103084527
97.6476879407575
97.606735813334
97.6047519140185
97.6396062463052
97.6660576679805
97.6291472401769
97.5969908125711
97.6070586976252
97.5895041354923
97.5567668408086
97.5765209102107
97.6589102549582
97.6887058289882
97.5665163291092
97.5434432851474
97.6501931239078
97.6299233233945
97.5916986448967
97.6465147806388
97.6695211379779
97.6157497246147
97.5862884050141
97.5990018360379
97.6503037840665
97.6662643117795
97.5942724579934
97.5255329913169
97.4823608623389
97.5133908450724
97.5845250700577
97.575348503106
97.5496279352875
97.5500035998081
97.5982895499494
97.5976003169495
97.5627908920244
97.6145207132686
97.6101543425676
97.556313564442
97.5333876774884
97.4090543410123
97.320831789658
97.4281286776957
97.570254391188
97.4818215376829
97.3599155505221
97.5115089165195
97.5837313815538
97.5414461780023
97.5401561932889
97.4791600603002
97.4809381193492
97.4306437687043
97.4210364396629
97.5578233236742
97.5405691927791
97.4632093728492
97.5089169639323
97.5214674697576
97.5177987017218
97.5353468055698
97.5328502341168
97.5094129650375
97.5495064385977
97.6016051235617
97.5810491559702
97.5189925564301
97.550730110915
97.5969239451701
97.5942588864486
97.5830866670687
97.5381323808737
97.4817889634307
97.4987378593052
97.5151677360061
97.5311158756394
97.5516814854558
97.4857287815247
97.4483153966012
97.5296427396785
97.5455295530752
97.5193611101479
97.5865072621442
97.6592504758258
97.5756831478662
97.5282963713041
97.5153878999097
97.5047942172512
97.5399773931695
97.5450862826168
97.4960245576913
97.4973966037876
97.5510749121823
97.5510569170296
97.5027228536673
97.5099644078734
97.5260822038959
97.5441406155169
97.5638153359145
97.5904184615285
97.5634847262296
97.5306397488047
97.5994441643011
97.6870222479137
97.7425878281384
97.6866530591669
97.6276413932297
97.7550456497406
97.834119016705
97.7420718084358
97.7875540053673
98.0268483866148
98.0858597765099
98.0843568007562
98.0371734047675
97.8842309089162
97.9073937750175
97.8487899647168
98.0233723836836
98.2813943607298
98.067467679933
97.9181554248625
98.1494080758046
98.4131232147875
98.6157311631922
98.4838624908767
98.2725462509071
98.3244132230511
98.3140990295675
98.2414162923224
98.4885003166076
99.0275047298877
98.9203723893234
98.7570883467488
99.0309448126134
99.0373340661825
98.7118951019762
98.720617867206
99.0703545401455
98.9640901101922
98.5293658682589
98.5607154193333
98.6537828407755
98.5145098667901
98.2584551045754
98.1075515975453
98.0048006430028
98.0894848458408
98.093401043357
98.0456842769777
98.201770496147
98.3317925354856
98.3026422713539
98.3115646161564
98.2770063081974
98.1822461223229
98.2187949107159
98.4044982756329
98.4641578487647
98.2698176102798
98.2753830638417
98.4487831404149
98.6074873917072
98.7669878811611
98.8099667105029
99.0053257470614
99.1460214141393
98.8413017976751
98.7312109311342
98.7517314497975
98.7667077674372
99.3119549164197
99.6360651716735
99.2348604183453
99.3615335464373
99.4974820724849
99.3177810518561
99.3569901682126
99.1811065420248
98.7662229292632
98.7181472069097
98.775568281984
98.9983418398632
99.397760120192
99.1968143260457
99.3319840888277
99.3986093037571
98.9243186542123
98.9607574680461
99.0226313915991
98.5855571089144
98.4042760208499
98.481771545716
98.5735318120542
98.590745385733
98.598597633954
98.5177511207352
98.4263875319212
98.4745794070875
98.4952001979554
98.2832077268654
98.2988338315177
98.42549652652
98.4022701813805
98.2873046042061
98.3027160912122
98.2398261696098
98.26160450724
98.2468169396658
98.1514847926732
98.1635091463807
98.2168100405829
98.145294593046
98.2041641965268
98.2878301659588
98.2444993054712
98.1701290422252
98.2606827916926
98.2850536554198
98.312230309046
98.4242375092113
98.4336917162133
98.4143783046386
98.4403952969673
98.5259637462698
98.5978631593571
98.608746326616
98.5629999392964
98.558279037866
98.6875959007354
98.7233174031814
98.7341488061408
98.749942786669
98.8459611240198
99.1020765238876
99.2431207246116
99.3895975196222
99.6135905875106
99.7718514207534
100.160270160169
100.72610655533
101.452044454454
103.063737089632
105.74390877092
109.25959508902
113.302665606424
115.212943023059
114.280105922448
112.151639342985
109.843858104868
108.348095668557
107.796203727201
107.600955801355
107.618843748579
107.949012613396
107.730474393296
107.073010326061
106.304796983112
105.510436768294
104.745568017421
104.197695019535
103.912620548579
104.491125341493
105.90301803559
106.158628619989
105.529386790918
104.66043458157
103.931867212855
103.401203453557
102.995134851618
102.696290757041
102.794943856479
102.900203985569
102.739551311342
102.49911090584
102.186114746018
102.035587404263
101.644751188582
101.357189791754
101.257997839574
101.13330168657
100.914164177076
100.588644598802
100.260903455622
100.152076258442
100.070526824666
100.005671226387
99.8985911112135
99.7282196683068
99.5961421047802
99.5181848231958
99.424941671067
99.4586597832536
99.399955085632
99.3618337366549
99.1804427159483
99.0929372938005
99.2718375334483
99.1982924661244
99.0771654784625
98.8856706040901
98.7431082377542
98.6788482753231
98.4432495568521
98.2472505441546
98.0625207335036
97.8914163881542
97.7504949240999
97.571468901688
97.2828701171354
97.0108510892982
96.7068099078324
96.3899152231521
96.2584977820715
96.1090159365795
96.0267485161577
96.0425171037001
96.0485024077031
96.2658836191902
97.7917316408726
100.385770933813
101.805205948122
101.975044774869
101.717972612453
101.087457622596
100.154639174331
99.3523133045959
98.8529610300151
98.2823681736752
97.6100006318298
96.8788332618044
96.1815717469979
95.7412603617155
95.6800579429407
95.8534936834154
95.8518759141529
95.9191258706874
96.372346911079
96.9014245934496
97.3792547400696
98.1327946315627
98.9857918964205
100.207823814895
101.870277220571
103.323658704651
103.944824714827
103.694822723672
103.634926251148
103.769368220472
103.482764415425
102.899654554812
102.458578255303
102.244153063272
102.154203983378
102.201682715034
102.356404981394
102.433951988576
102.456161062074
102.472319961525
102.498255675912
102.618371671774
102.826474725839
103.035460551997
103.118099360431
103.181496912342
103.362963084321
103.567403763178
103.690867435166
103.773882871672
103.893358265042
104.072556945591
104.263597629966
104.433262115129
104.553330676062
104.656928436857
104.778094868576
104.89231567559
105.058696069286
105.297279373847
105.550706258076
105.74935035666
105.858757659457
105.859925928455
105.788007230892
105.740740320997
105.742921616823
105.703177721475
105.440561621819
104.99625914962
104.536337160355
104.093003331908
103.752118145223
103.634493244015
103.659379239646
103.623927785838
103.492492011615
103.384186693041
103.283151613126
103.186410671035
103.079745346858
102.870829135778
102.469898806977
102.076401468106
102.00207780486
101.858420833169
101.210620462954
100.397217112159
99.6879027308401
98.9083236790255
97.8599637121279
96.6812582222945
95.7976608973004
95.3414023650348
94.9950902220451
94.4414411681865
93.6272192416205
92.8412938639999
92.1646632251983
91.4966511260637
90.7845393293333
90.0280189208821
89.2396827593316
88.4440783847346
87.7510469580708
87.1837475426447
86.6614379869317
86.190882846474
85.6981999550533
85.0403237248587
84.1738425492862
83.1426121205581
82.0752970832807
81.081003235315
80.264549730709
79.625658182454
78.9701877445873
78.1604781410114
77.3148141965695
76.7158708580118
76.5320266175878
76.5219776819853
76.3567005026338
76.0012865224221
75.5003746662294
74.9415060000351
74.6035755230426
74.6990179780657
75.0793422350798
75.5722885348181
76.1404027301773
76.7017723372986
77.1972146469389
77.6750677873492
78.1760801685009
78.6614373940095
79.0711646743407
79.4654308164925
79.8774642433786
80.2060354489482
80.5077905174499
80.7914501545282
80.9768530424877
81.1526259208441
81.3514876860132
81.5613104904575
81.8024437855131
82.0248236229231
82.0876432771092
81.9289196405041
81.8488357469866
82.1345406406866
82.6800467423843
83.3210847234794
84.0208045831556
84.6932955560394
85.3407835302061
85.8837643635779
85.9042206676608
84.8089105411851
83.0434755200941
82.9811743570332
85.129840227858
86.9600578222217
87.7295091665861
88.2985999313956
88.9642423616788
89.7464123228391
90.5484200556242
91.346072935272
92.0860825650249
92.7557360728686
93.3053457981092
93.7882178887394
94.3505639721106
94.7454503078194
94.7371650573308
94.4147963496555
93.5999205457027
91.940055540782
89.7853677825922
88.0694164658114
87.2475099260236
87.0512595252386
86.9056821094788
86.1559190435132
84.8207804012845
83.8153169886772
83.527546866487
83.5611112685761
83.7097575709084
84.1637662973412
84.8487875634263
85.3146469988195
85.719428460483
86.1526328631131
86.6564562754608
87.2509843178604
87.4707191525773
87.5475377908927
87.8534004331126
88.2045040488179
88.5581436721774
88.7356932101398
88.6219820739112
88.7247645158904
89.394239518237
89.3810673171356
87.9283751840937
86.7388317193843
86.5586021880788
86.9756250479834
87.7115257487093
88.0225889443923
88.0447005710465
88.2849774667033
88.7125853479173
89.3255178695257
89.5799032857825
89.29134619085
88.3280882309103
87.3964822480063
